time
,EMG0,EMG1,EMG2,EMG3,EMG4,EMG5,EMG63493192475,43,73,56,56,99,38,73
3493242475,48,85,64,58,116,41,69
3493292475,42,66,52,57,98,37,66
3493342475,42,81,38,56,148,44,65
3493392475,40,78,70,60,142,45,64
3493442475,39,64,42,57,126,39,64
3493492475,42,82,52,60,140,43,65
3493542475,40,58,37,61,121,44,65
3493592475,39,44,31,64,150,49,65
3493642475,43,50,34,67,160,46,65
3493692475,40,45,30,81,129,42,65
3493742475,39,40,29,76,177,44,65
3493792475,39,50,30,61,153,50,65
3493842475,40,69,41,66,148,51,65
3493892475,47,78,35,60,133,53,65
3493942475,41,55,37,73,93,43,65
3493992475,66,47,40,134,82,41,65
3494042475,76,43,37,89,97,43,65
3494092475,76,45,50,92,92,44,65
3494142475,64,39,40,101,98,42,65
3494192475,56,43,33,86,92,44,66
3494242475,46,38,37,76,100,42,66
3494292475,41,37,31,64,102,42,66
3494342475,39,37,35,78,84,45,66
3494392475,38,36,31,60,102,48,61
3494442475,38,36,30,74,144,45,56
3494492475,38,37,29,83,97,39,60
3494542475,38,37,29,94,142,50,83
3494592475,38,37,30,98,77,40,124
3494642475,38,37,29,109,76,41,93
3494692475,38,37,29,265,112,42,78
3494742475,38,38,29,705,81,37,76
3494792475,38,52,29,321,60,35,71
3494842475,45,77,40,174,37,37,84
3494892475,50,80,45,105,27,34,79
3494942475,43,54,34,68,23,34,71
3494992475,39,43,31,61,21,31,69
3495042475,39,41,32,57,21,34,70
3495092475,39,39,31,53,21,34,67
3495142475,38,37,29,51,21,31,66
3495192475,38,36,29,50,21,31,58
3495242475,38,37,50,78,21,31,65
3495292475,38,61,54,184,21,32,151
3495342475,39,91,63,172,21,42,121
3495392475,51,123,110,125,48,99,116
3495442475,53,104,112,155,111,79,233
3495492475,61,89,92,214,50,48,304
3495542475,64,96,106,163,30,36,259
3495592475,69,110,92,120,24,33,242
3495642475,48,78,57,95,22,31,278
3495692475,43,74,46,78,57,34,278
3495742475,41,61,45,90,311,55,238
3495792475,41,45,34,147,336,57,261
3495842475,39,40,31,253,158,42,297
3495892475,38,38,30,434,86,36,347
3495942475,38,37,30,196,42,42,382
3495992475,41,38,33,102,29,39,347
3496042475,59,44,58,77,25,33,255
3496092475,73,51,89,69,33,35,164
3496142475,52,42,65,69,36,33,127
3496192475,42,38,43,62,28,35,109
3496242475,40,37,33,53,28,32,123
3496292475,39,37,44,101,23,32,128
3496342475,38,48,48,81,21,31,162
3496392475,39,102,84,130,30,38,187
3496442475,157,150,103,180,53,49,126
3496492475,96,119,93,146,156,89,160
3496542475,105,189,227,252,70,50,157
3496592475,81,120,153,229,67,38,163
3496642475,77,149,164,142,72,48,174
3496692475,51,82,74,136,153,42,148
3496742475,43,70,53,117,144,53,166
3496792475,41,78,57,201,246,56,173
3496842475,41,57,52,185,213,46,242
3496892475,40,43,56,158,175,41,353
3496942475,41,40,40,308,133,41,415
3496992475,39,37,33,170,129,35,429
3497042475,39,37,30,121,59,34,391
3497092475,38,36,30,84,33,32,305
3497142475,38,37,33,82,26,31,176
3497192475,48,46,43,62,24,31,149
3497242475,75,41,43,53,36,32,162
3497292475,52,38,41,54,27,32,171
3497342475,52,38,37,52,24,32,171
3497392475,43,36,31,55,26,30,157
3497442475,40,36,29,61,22,30,168
3497492475,39,43,42,60,22,30,185
3497542475,47,88,69,60,68,31,166
3497592475,43,113,60,55,38,30,114
3497642475,63,107,60,57,49,45,100
3497692475,67,113,107,62,140,53,85
3497742475,74,137,99,65,252,73,77
3497792475,60,116,56,63,266,88,71
3497842475,47,65,39,93,112,51,63
3497892475,41,53,32,66,149,54,65
3497942475,39,42,30,71,111,51,66
3497992475,38,38,32,80,174,67,66
3498042475,38,37,31,74,126,63,66
3498092475,38,36,30,77,64,43,66
3498142475,38,36,29,74,39,37,65
3498192475,38,36,29,112,48,34,65
3498242475,38,36,28,117,34,35,72
3498292475,38,36,29,131,32,38,90
3498342475,38,36,28,117,25,33,112
3498392475,38,36,28,102,23,30,127
3498442475,38,36,28,81,22,34,105
3498492475,38,36,31,58,21,33,83
3498542475,38,41,30,50,22,31,74
3498592475,37,44,29,50,22,29,65
3498642475,38,40,29,48,21,31,72
3498692475,38,38,28,47,20,31,72
3498742475,38,37,28,50,21,31,69
3498792475,38,36,28,50,21,30,79
3498842475,38,40,33,49,22,30,111
3498892475,39,70,59,56,24,30,164
3498942475,43,80,67,58,25,30,121
3498992475,54,108,56,65,33,35,91
3499042475,60,142,137,81,145,47,92
3499092475,65,99,85,201,145,43,125
3499142475,50,76,56,176,167,46,109
3499192475,42,50,40,134,177,46,106
3499242475,40,55,34,114,103,37,101
3499292475,38,46,32,90,130,35,116
3499342475,39,54,35,93,64,31,130
3499392475,38,44,30,93,49,30,162
3499442475,38,38,30,100,42,30,194
3499492475,38,37,29,98,175,41,228
3499542475,39,44,54,139,79,34,267
3499592475,38,38,36,166,56,33,283
3499642475,39,37,32,208,40,31,287
3499692475,38,55,60,125,93,34,272
3499742475,40,66,76,91,47,35,226
3499792475,40,75,57,64,29,34,163
3499842475,39,66,47,53,24,37,149
3499892475,39,67,51,56,22,35,219
3499942475,40,52,38,209,21,33,241
3499992475,39,58,40,276,21,32,254
3500042475,38,53,38,293,21,32,210
3500092475,38,44,33,211,21,33,213
3500142475,42,57,37,274,20,38,400
3500192475,41,53,35,291,23,35,336
3500242475,43,51,34,239,22,37,495
3500292475,41,46,32,232,21,33,378
3500342475,40,45,32,197,21,34,387
3500392475,40,44,32,200,21,33,324
3500442475,39,41,31,120,23,35,281
3500492475,38,40,30,113,23,35,183
3500542475,39,39,29,74,33,33,138
3500592475,38,41,29,62,28,34,99
3500642475,38,43,29,60,23,31,81
3500692475,38,40,28,57,22,30,73
3500742475,39,40,29,68,21,31,76
3500792475,38,39,29,60,21,30,76
3500842475,38,37,29,54,21,30,70
3500892475,38,37,28,50,21,30,67
3500942475,38,37,28,48,21,30,66
3500992475,38,36,29,46,21,30,72
3501042475,38,44,47,46,21,29,73
3501092475,38,40,40,46,23,30,150
3501142475,43,51,46,49,21,30,107
3501192475,40,67,49,48,22,30,115
3501242475,48,89,55,64,100,44,103
3501292475,53,116,75,64,166,52,219
3501342475,48,72,62,65,230,62,261
3501392475,55,56,49,56,198,49,225
3501442475,49,74,49,52,107,41,210
3501492475,58,105,45,58,129,53,236
3501542475,45,59,36,82,110,46,231
3501592475,42,50,47,63,134,48,207
3501642475,40,44,35,81,114,36,186
3501692475,42,51,44,78,96,34,158
3501742475,45,58,81,59,107,57,136
3501792475,42,56,53,54,49,40,194
3501842475,42,46,57,50,30,51,248
3501892475,46,49,42,48,24,37,208
3501942475,43,52,50,46,22,34,142
3501992475,39,44,36,46,21,36,161
3502042475,40,42,32,46,20,32,143
3502092475,38,46,45,46,21,34,145
3502142475,38,40,33,52,21,37,143
3502192475,38,38,31,51,21,49,126
3502242475,38,37,30,52,21,41,126
3502292475,38,37,30,49,20,42,113
3502342475,38,36,30,50,21,35,113
3502392475,38,36,30,54,21,35,94
3502442475,38,37,31,53,22,39,128
3502492475,38,38,31,67,21,36,107
3502542475,39,42,31,54,23,36,96
3502592475,42,56,59,61,45,33,89
3502642475,42,64,55,76,165,34,90
3502692475,42,68,72,165,145,34,97
3502742475,43,59,48,117,203,43,80
3502792475,64,72,74,80,153,43,72
3502842475,59,64,50,84,164,44,69
3502892475,57,67,60,81,144,47,66
3502942475,59,73,58,60,179,58,65
3502992475,51,88,65,79,245,60,66
3503042475,61,96,69,63,202,48,70
3503092475,108,94,78,64,197,50,69
3503142475,93,83,81,55,107,37,69
3503192475,103,140,105,60,92,42,68
3503242475,76,113,92,58,56,34,63
3503292475,97,137,94,70,72,34,59
3503342475,73,121,69,56,103,39,55
3503392475,78,115,84,52,112,40,56
3503442475,60,120,73,48,105,36,54
3503492475,49,96,67,50,90,34,60
3503542475,57,118,83,48,45,33,58
3503592475,46,76,52,49,29,31,62
3503642475,54,128,73,47,24,32,68
3503692475,44,68,43,55,22,30,70
3503742475,40,46,33,69,21,31,94
3503792475,39,43,32,71,22,32,81
3503842475,38,38,30,74,22,32,83
3503892475,38,40,29,62,21,32,80
3503942475,38,37,29,58,21,30,86
3503992475,38,38,30,70,21,31,89
3504042475,38,37,29,60,20,32,77
3504092475,38,37,29,62,21,32,75
3504142475,38,36,29,52,21,31,71
3504192475,38,36,29,48,22,31,68
3504242475,38,36,29,49,21,31,66
3504292475,38,36,28,51,21,31,65
3504342475,37,36,28,50,21,30,66
3504392475,38,36,28,56,21,30,68
3504442475,38,36,28,50,21,30,66
3504492475,38,36,28,50,21,30,65
3504542475,38,36,28,49,21,31,66
3504592475,38,36,28,47,21,31,65
3504642475,38,36,29,53,21,31,65
3504692475,38,36,28,54,21,30,65
3504742475,38,36,29,50,20,31,68
3504792475,38,36,28,51,21,32,69
3504842475,38,36,28,54,21,32,67
3504892475,38,36,28,61,22,32,67
3504942475,38,36,28,56,21,32,66
3504992475,38,36,28,53,21,32,65
3505042475,38,36,28,49,21,30,65
3505092475,39,36,29,53,21,31,65
3505142475,38,36,29,52,22,31,65
3505192475,40,36,29,53,22,31,65
3505242475,40,36,29,55,21,31,65
3505292475,38,37,28,50,21,32,65
3505342475,38,35,28,53,20,30,66
3505392475,38,36,28,53,21,31,68
3505442475,38,47,58,53,37,33,65
3505492475,38,42,52,73,69,31,68
3505542475,38,40,37,69,203,34,80
3505592475,38,57,59,86,235,43,76
3505642475,38,43,38,63,210,47,93
3505692475,38,38,32,63,168,44,108
3505742475,37,39,30,59,159,41,128
3505792475,38,38,30,59,129,40,141
3505842475,38,37,29,56,107,41,142
3505892475,38,36,29,61,101,41,149
3505942475,38,36,29,52,109,48,129
3505992475,38,36,29,54,143,51,127
3506042475,38,36,29,54,141,50,129
3506092475,38,36,28,52,134,55,125
3506142475,38,36,28,53,153,67,112
3506192475,38,36,29,52,97,51,104
3506242475,38,36,28,51,173,54,99
3506292475,38,36,29,49,168,60,88
3506342475,38,36,28,56,150,50,80
3506392475,38,36,28,51,119,50,71
3506442475,38,36,28,50,196,51,66
3506492475,38,36,28,48,129,53,58
3506542475,38,36,28,56,175,62,60
3506592475,38,36,29,51,150,65,58
3506642475,38,36,28,51,146,62,62
3506692475,39,36,28,52,127,62,62
3506742475,38,36,28,48,119,60,61
3506792475,38,36,28,48,151,56,66
3506842475,38,36,28,47,138,60,69
3506892475,38,36,28,49,97,49,67
3506942475,38,36,28,49,134,57,77
3506992475,38,36,28,47,135,55,85
3507042475,38,36,29,53,170,73,117
3507092475,38,36,29,52,130,62,114
3507142475,38,36,29,66,196,89,117
3507192475,38,36,29,210,203,107,138
3507242475,39,36,28,107,143,60,137
3507292475,38,36,28,78,133,67,124
3507342475,38,36,28,82,104,48,102
3507392475,38,36,28,59,120,61,78
3507442475,38,36,28,55,94,52,69
3507492475,38,43,28,51,100,50,67
3507542475,38,39,28,49,102,54,67
3507592475,38,40,29,54,72,46,70
3507642475,38,38,29,49,42,38,80
3507692475,38,37,29,49,45,40,72
3507742475,38,37,29,49,38,39,68
3507792475,38,38,29,47,32,37,64
3507842475,39,37,29,47,87,49,66
3507892475,38,37,29,47,49,40,65
3507942475,38,37,29,48,37,35,64
3507992475,38,36,29,49,29,34,66
3508042475,37,37,29,48,25,33,63
3508092475,38,37,29,48,41,36,68
3508142475,38,37,29,49,28,33,62
3508192475,38,36,29,48,28,33,61
3508242475,38,36,29,52,23,31,62
3508292475,38,36,29,49,22,32,63
3508342475,39,37,29,50,21,31,64
3508392475,38,36,28,57,22,31,68
3508442475,38,37,29,67,51,32,72
3508492475,38,36,28,58,52,34,68
3508542475,38,36,28,58,54,32,72
3508592475,38,36,28,60,48,36,82
3508642475,38,35,29,53,61,33,78
3508692475,38,36,28,52,63,34,71
3508742475,38,36,28,53,54,33,81
3508792475,38,36,28,69,91,36,75
3508842475,38,38,28,56,64,36,69
3508892475,38,38,28,53,44,34,72
3508942475,38,37,28,50,58,33,70
3508992475,38,37,28,52,59,35,68
3509042475,38,37,28,48,33,32,66
3509092475,38,37,28,46,25,32,66
3509142475,38,36,28,46,70,31,65
3509192475,38,36,28,57,81,33,65
3509242475,38,36,28,57,100,32,66
3509292475,38,36,29,51,114,36,66
3509342475,38,36,28,48,143,42,66
3509392475,38,36,29,48,172,43,66
3509442475,38,36,28,47,117,39,66
3509492475,38,39,28,46,177,54,66
3509542475,38,38,28,47,168,45,66
3509592475,41,41,30,49,182,54,66
3509642475,39,38,29,47,171,57,66
3509692475,39,37,29,62,200,59,81
3509742475,40,36,28,68,151,45,73
3509792475,52,44,67,89,79,40,76
3509842475,49,69,76,100,170,63,70
3509892475,61,101,80,82,221,87,67
3509942475,91,174,140,92,269,134,64
3509992475,89,208,280,74,273,208,65
3510042475,102,143,186,67,239,149,74
3510092475,84,137,138,81,261,160,155
3510142475,53,72,67,81,207,109,125
3510192475,52,87,79,63,210,106,100
3510242475,64,94,72,61,210,141,101
3510292475,70,89,127,63,316,153,84
3510342475,53,71,81,52,312,150,74
3510392475,49,146,123,63,128,89,98
3510442475,52,108,198,59,205,133,146
3510492475,47,75,153,53,151,105,129
3510542475,58,108,147,53,136,78,154
3510592475,45,60,66,49,91,58,121
3510642475,41,50,60,48,72,53,131
3510692475,44,41,47,47,42,40,114
3510742475,40,39,36,51,36,50,94
3510792475,38,38,31,52,26,39,92
3510842475,38,37,30,48,34,37,121
3510892475,38,39,31,50,31,43,139
3510942475,39,38,30,47,27,42,139
3510992475,38,37,30,46,23,35,122
3511042475,38,37,29,46,22,39,133
3511092475,38,38,30,47,21,36,148
3511142475,38,38,29,47,21,37,117
3511192475,38,36,29,50,21,36,86
3511242475,40,36,31,51,22,34,73
3511292475,39,36,29,50,22,38,69
3511342475,38,37,29,48,22,39,67
3511392475,38,37,29,58,21,39,69
3511442475,38,37,29,64,21,37,73
3511492475,38,47,44,64,39,39,79
3511542475,51,58,46,84,125,48,74
3511592475,43,68,56,82,245,49,88
3511642475,42,66,58,85,225,55,89
3511692475,39,51,38,87,181,48,87
3511742475,38,42,35,152,189,75,161
3511792475,39,39,39,220,174,68,236
3511842475,38,44,49,213,147,65,369
3511892475,38,41,36,132,109,53,298
3511942475,38,38,31,146,83,45,207
3511992475,38,40,38,100,71,48,187
3512042475,38,40,33,84,63,39,168
3512092475,38,40,32,93,69,37,193
3512142475,38,41,30,108,60,35,159
3512192475,38,38,29,105,57,33,120
3512242475,38,39,29,235,36,31,86
3512292475,39,50,35,184,27,35,78
3512342475,38,42,33,94,23,40,71
3512392475,38,39,30,63,22,37,65
3512442475,38,43,30,54,21,33,62
3512492475,38,41,29,49,21,31,66
3512542475,38,39,29,48,21,34,92
3512592475,38,38,29,49,21,33,95
3512642475,38,37,29,54,21,31,80
3512692475,38,36,28,49,21,30,74
3512742475,38,36,28,47,23,30,76
3512792475,38,38,51,47,30,30,76
3512842475,41,53,44,46,141,34,134
3512892475,44,67,65,49,125,38,112
3512942475,46,83,76,62,56,33,86
3512992475,62,113,99,67,78,44,75
3513042475,86,177,141,68,209,62,80
3513092475,82,148,120,61,242,65,98
3513142475,94,134,160,80,125,45,84
3513192475,70,109,106,64,172,56,73
3513242475,49,60,53,127,168,61,94
3513292475,51,59,42,102,193,56,151
3513342475,47,74,90,74,124,42,197
3513392475,41,52,51,256,117,35,196
3513442475,40,48,41,127,63,32,166
3513492475,40,57,43,98,55,31,167
3513542475,55,82,99,129,34,30,157
3513592475,85,100,197,281,42,31,148
3513642475,53,57,82,551,29,30,190
3513692475,43,47,46,226,24,33,202
3513742475,40,49,35,128,28,37,163
3513792475,39,45,34,76,26,35,144
3513842475,38,45,32,64,25,37,108
3513892475,38,40,31,88,30,34,99
3513942475,39,38,30,71,26,32,97
3513992475,38,37,29,59,28,36,108
3514042475,38,37,28,52,23,34,111
3514092475,38,37,28,48,31,33,93
3514142475,42,39,43,53,29,34,105
3514192475,40,42,41,54,25,36,179
3514242475,42,64,73,87,49,33,146
3514292475,44,88,74,84,179,37,103
3514342475,43,81,59,126,360,43,94
3514392475,69,93,77,174,295,53,74
3514442475,66,94,77,196,211,45,125
3514492475,69,103,110,176,87,36,186
3514542475,49,60,56,104,43,32,164
3514592475,41,44,37,65,28,32,116
3514642475,39,39,32,52,23,33,83
3514692475,38,38,32,56,21,32,74
3514742475,39,38,31,51,26,31,77
3514792475,43,38,33,48,23,32,94
3514842475,50,38,41,48,23,33,90
3514892475,52,38,37,46,27,33,86
3514942475,48,37,35,46,23,31,85
3514992475,66,51,62,46,26,32,89
3515042475,56,72,58,45,26,31,88
3515092475,54,107,61,46,26,30,86
3515142475,58,123,58,46,29,31,89
3515192475,50,71,48,48,23,30,87
3515242475,42,48,36,50,22,30,120
3515292475,40,64,46,48,22,39,144
3515342475,40,92,62,53,92,49,192
3515392475,41,102,98,57,292,85,302
3515442475,54,111,115,61,325,82,335
3515492475,58,124,82,53,324,66,294
3515542475,55,89,55,52,316,87,238
3515592475,43,54,42,94,194,72,264
3515642475,41,43,35,116,186,59,252
3515692475,38,38,31,137,116,39,260
3515742475,38,37,33,201,150,49,284
3515792475,38,36,32,316,71,37,315
3515842475,38,37,30,416,42,33,319
3515892475,38,36,57,268,30,32,304
3515942475,38,37,38,133,24,39,263
3515992475,38,38,46,75,22,33,201
3516042475,49,54,48,56,25,37,128
3516092475,45,45,58,52,25,40,135
3516142475,41,40,39,53,30,37,135
3516192475,39,37,32,68,24,32,127
3516242475,38,36,29,74,22,31,118
3516292475,38,36,40,88,22,30,116
3516342475,38,44,59,69,97,32,235
3516392475,42,86,71,68,99,33,165
3516442475,174,92,106,61,50,31,113
3516492475,179,153,140,85,197,55,139
3516542475,115,121,139,77,183,48,138
3516592475,73,72,82,179,128,39,110
3516642475,51,52,50,124,77,35,125
3516692475,45,65,57,96,39,33,167
3516742475,40,46,38,73,26,31,181
3516792475,39,39,34,105,23,30,254
3516842475,38,37,32,108,46,30,286
3516892475,38,37,30,168,47,32,337
3516942475,38,37,29,431,36,31,375
3516992475,38,37,29,233,27,30,377
3517042475,38,37,32,118,22,38,325
3517092475,46,41,50,78,23,35,216
3517142475,56,54,54,57,23,42,177
3517192475,66,42,68,53,22,37,173
3517242475,47,39,41,52,22,34,168
3517292475,41,37,32,52,22,32,166
3517342475,39,37,38,49,21,30,160
3517392475,38,48,60,49,63,31,197
3517442475,39,76,61,55,91,32,225
3517492475,51,120,95,65,48,33,168
3517542475,245,117,100,84,104,54,152
3517592475,202,213,163,92,202,56,119
3517642475,133,140,155,175,100,45,142
3517692475,83,76,110,128,48,37,105
3517742475,53,49,54,86,30,32,87
3517792475,43,41,36,66,23,30,76
3517842475,40,38,32,78,22,30,70
3517892475,39,37,32,84,41,31,89
3517942475,39,37,30,136,29,31,197
3517992475,38,37,29,219,24,32,254
3518042475,38,39,40,136,22,34,283
3518092475,39,40,82,75,22,36,210
3518142475,42,54,59,57,22,35,146
3518192475,86,53,61,51,22,41,150
3518242475,54,44,39,54,21,34,112
3518292475,43,38,32,51,21,32,104
3518342475,40,37,37,48,61,30,96
3518392475,38,49,63,47,82,31,168
3518442475,41,62,79,57,46,31,200
3518492475,48,128,125,77,74,32,139
3518542475,236,157,142,92,213,54,114
3518592475,214,167,143,113,304,82,88
3518642475,116,173,173,114,141,53,149
3518692475,67,84,92,99,61,38,117
3518742475,48,53,48,74,34,33,87
3518792475,42,42,39,81,25,30,72
3518842475,41,48,61,95,22,29,68
3518892475,39,41,44,120,28,29,70
3518942475,38,39,71,161,25,30,110
3518992475,40,38,50,116,23,30,196
3519042475,39,37,39,113,22,36,241
3519092475,40,39,92,75,21,37,190
3519142475,45,55,79,58,22,36,125
3519192475,52,49,62,51,22,33,130
3519242475,44,43,55,50,23,35,123
3519292475,40,38,38,49,22,32,104
3519342475,38,37,31,47,21,30,79
3519392475,38,45,52,47,21,30,109
3519442475,39,55,72,52,20,31,195
3519492475,44,86,102,65,25,31,145
3519542475,310,160,180,78,99,37,110
3519592475,256,196,156,137,176,43,88
3519642475,145,165,220,162,166,51,137
3519692475,82,92,130,124,68,40,127
3519742475,55,59,64,81,39,33,94
3519792475,44,44,40,70,27,30,81
3519842475,40,38,33,82,23,30,71
3519892475,39,37,33,72,22,30,64
3519942475,38,36,52,120,23,30,123
3519992475,38,36,36,174,24,30,180
3520042475,38,38,72,148,22,30,238
3520092475,39,38,53,89,21,36,229
3520142475,38,42,82,60,21,33,150
3520192475,78,51,49,54,21,36,132
3520242475,58,43,43,49,25,35,138
3520292475,44,39,33,51,23,34,120
3520342475,40,37,30,52,21,30,100
3520392475,38,36,29,50,21,30,80
3520442475,38,42,40,50,34,30,109
3520492475,44,72,67,93,40,30,177
3520542475,51,138,89,75,51,31,136
3520592475,243,289,147,95,206,48,105
3520642475,216,271,175,78,232,58,84
3520692475,132,195,237,83,137,41,159
3520742475,108,121,136,103,136,42,131
3520792475,62,67,71,93,89,37,96
3520842475,46,47,42,75,56,33,80
3520892475,41,40,33,74,42,31,72
3520942475,39,37,33,66,32,31,68
3520992475,38,36,33,92,78,35,73
3521042475,39,36,30,192,42,34,100
3521092475,38,36,28,330,53,34,146
3521142475,38,37,28,155,32,33,181
3521192475,38,37,39,89,24,35,160
3521242475,39,55,61,60,23,34,119
3521292475,64,52,54,52,24,40,137
3521342475,54,44,45,49,22,37,132
3521392475,44,39,35,52,21,35,104
3521442475,40,37,31,50,20,32,83
3521492475,39,37,29,48,20,30,75
3521542475,38,40,42,47,22,30,168
3521592475,44,72,81,55,46,30,186
3521642475,50,125,100,80,74,30,138
3521692475,205,141,137,189,164,50,147
3521742475,178,119,121,261,317,59,238
3521792475,98,117,155,238,141,42,339
3521842475,59,69,70,175,139,40,273
3521892475,45,49,42,128,77,35,265
3521942475,40,43,37,110,69,34,232
3521992475,39,40,34,114,60,37,167
3522042475,39,37,31,158,66,35,145
3522092475,38,37,30,267,52,34,139
3522142475,38,36,29,181,33,31,132
3522192475,38,36,28,169,25,32,122
3522242475,38,36,29,97,22,33,96
3522292475,39,38,35,65,21,32,81
3522342475,42,49,32,53,21,37,119
3522392475,40,41,30,51,24,33,142
3522442475,38,38,30,64,22,33,159
3522492475,38,38,29,53,21,33,137
3522542475,38,37,29,50,21,31,135
3522592475,38,37,29,48,21,30,140
3522642475,38,37,29,49,21,31,125
3522692475,38,38,29,53,38,30,155
3522742475,38,38,46,58,131,31,127
3522792475,40,71,54,57,64,30,138
3522842475,50,90,61,58,36,34,107
3522892475,58,106,97,80,120,47,87
3522942475,57,154,129,132,243,48,76
3522992475,50,111,83,293,186,42,100
3523042475,48,78,68,135,77,36,201
3523092475,41,50,44,83,50,32,154
3523142475,39,41,35,75,39,31,167
3523192475,38,38,31,94,50,33,147
3523242475,38,37,32,113,101,33,126
3523292475,38,37,32,397,81,36,139
3523342475,38,37,30,363,45,32,191
3523392475,38,36,29,154,31,36,223
3523442475,38,36,30,90,25,36,186
3523492475,89,44,72,61,22,34,122
3523542475,104,53,50,53,23,36,116
3523592475,62,42,46,55,22,36,143
3523642475,47,38,34,50,24,33,154
3523692475,41,36,30,49,22,31,117
3523742475,39,37,37,47,24,31,121
3523792475,39,49,41,47,22,31,247
3523842475,39,67,72,56,23,33,187
3523892475,177,107,86,72,118,53,128
3523942475,171,113,122,96,219,109,192
3523992475,170,132,170,212,140,69,282
3524042475,147,101,144,146,116,49,269
3524092475,88,75,70,116,122,60,306
3524142475,55,50,42,82,119,44,233
3524192475,44,42,33,70,90,40,146
3524242475,40,40,34,154,117,40,116
3524292475,39,41,32,278,86,35,125
3524342475,38,41,31,324,61,32,168
3524392475,38,38,29,190,33,33,181
3524442475,43,50,59,99,26,33,133
3524492475,103,55,94,72,24,37,98
3524542475,64,48,54,59,27,34,114
3524592475,46,41,38,55,26,34,121
3524642475,41,38,31,51,23,33,161
3524692475,39,50,57,53,27,33,208
3524742475,39,77,74,132,89,32,153
3524792475,44,107,114,146,249,35,129
3524842475,81,132,101,125,372,43,138
3524892475,91,108,111,148,303,49,110
3524942475,76,84,83,97,189,44,134
3524992475,68,145,120,117,208,45,115
3525042475,64,138,95,80,130,42,88
3525092475,53,88,53,70,107,34,74
3525142475,47,74,44,65,151,37,79
3525192475,45,91,71,60,165,42,74
3525242475,82,132,84,54,100,38,72
3525292475,59,122,61,49,47,34,73
3525342475,45,69,40,47,29,31,97
3525392475,41,48,32,46,24,33,115
3525442475,39,43,43,75,21,31,299
3525492475,38,38,35,69,21,33,240
3525542475,45,49,40,56,21,31,148
3525592475,58,83,76,56,21,30,105
3525642475,56,138,100,55,21,30,84
3525692475,62,129,91,53,22,30,74
3525742475,64,126,75,50,21,30,69
3525792475,55,117,75,47,21,30,66
3525842475,50,90,62,46,21,29,64
3525892475,57,107,55,46,21,34,67
3525942475,44,61,37,46,21,32,65
3525992475,40,44,32,51,21,30,65
3526042475,39,39,30,52,22,30,65
3526092475,38,37,29,51,21,30,65
3526142475,38,37,29,49,21,30,66
3526192475,38,36,29,48,21,30,65
3526242475,38,38,28,47,21,30,67
3526292475,38,36,28,46,21,30,66
3526342475,38,40,29,57,21,30,67
3526392475,39,42,51,83,73,30,106
3526442475,41,62,54,79,178,42,96
3526492475,104,142,99,75,162,40,78
3526542475,66,98,88,64,172,44,71
3526592475,55,87,65,69,130,43,84
3526642475,61,78,55,64,136,41,76
3526692475,46,50,38,80,103,39,101
3526742475,42,59,48,85,95,39,87
3526792475,48,69,56,200,126,41,83
3526842475,57,90,69,280,71,34,82
3526892475,47,58,47,525,64,32,87
3526942475,52,59,62,277,60,33,83
3526992475,87,131,97,270,75,35,81
3527042475,57,69,54,141,61,34,72
3527092475,52,69,56,91,47,31,69
3527142475,65,102,68,62,30,31,67
3527192475,60,115,80,54,25,30,65
3527242475,49,70,54,52,22,30,65
3527292475,50,81,58,50,21,30,65
3527342475,53,85,79,48,21,29,65
3527392475,44,58,46,48,21,30,65
3527442475,40,50,42,47,21,30,65
3527492475,39,59,37,46,21,30,65
3527542475,38,44,31,46,21,30,65
3527592475,38,39,30,46,21,30,65
3527642475,38,37,30,46,21,30,66
3527692475,38,36,29,50,21,32,66
3527742475,38,36,29,49,21,31,66
3527792475,38,37,28,48,21,31,65
3527842475,38,36,29,47,23,30,66
3527892475,45,36,30,46,22,30,65
3527942475,41,36,29,46,21,30,65
3527992475,40,36,28,49,21,30,66
3528042475,39,36,29,47,22,30,66
3528092475,39,36,29,46,23,30,66
3528142475,41,36,30,46,22,30,65
3528192475,105,37,42,46,24,30,65
3528242475,93,36,39,46,22,30,65
3528292475,87,50,94,46,21,31,65
3528342475,76,112,123,45,21,30,65
3528392475,52,82,72,46,29,29,65
3528442475,43,51,59,49,26,33,80
3528492475,46,88,41,48,53,50,106
3528542475,42,74,69,59,138,56,136
3528592475,44,94,53,68,170,116,152
3528642475,65,105,65,72,274,109,125
3528692475,80,106,65,62,192,69,108
3528742475,75,86,68,72,189,73,113
3528792475,58,85,60,62,220,102,119
3528842475,60,131,106,57,146,66,102
3528892475,84,153,173,64,161,56,97
3528942475,87,143,196,81,148,72,118
3528992475,86,106,133,63,187,60,112
3529042475,84,84,138,82,152,105,100
3529092475,120,140,222,80,176,105,90
3529142475,73,96,161,70,195,137,80
3529192475,124,133,184,88,104,85,73
3529242475,263,228,254,82,176,129,84
3529292475,121,136,117,79,134,98,73
3529342475,129,193,196,62,93,148,74
3529392475,148,157,313,59,113,107,85
3529442475,114,149,174,53,65,128,74
3529492475,116,161,277,77,70,115,72
3529542475,101,126,163,105,74,130,176
3529592475,218,302,244,114,92,88,140
3529642475,151,181,278,112,49,86,101
3529692475,218,265,448,73,55,114,84
3529742475,292,283,405,64,51,79,75
3529792475,333,404,734,66,60,176,70
3529842475,497,633,669,67,45,85,78
3529892475,572,685,628,69,117,61,74
3529942475,450,433,358,95,72,48,70
3529992475,648,623,498,168,59,51,77
3530042475,359,263,238,285,64,42,71
3530092475,390,323,506,206,84,41,80
3530142475,287,142,215,169,48,42,80
3530192475,120,71,88,105,61,37,170
3530242475,164,60,80,128,101,42,400
3530292475,86,44,46,106,93,75,461
3530342475,68,42,38,134,154,93,706
3530392475,59,45,38,96,245,220,504
3530442475,53,45,36,69,241,118,418
3530492475,45,47,45,79,261,80,428
3530542475,47,51,60,108,217,70,510
3530592475,48,47,51,101,229,67,583
3530642475,55,49,64,93,136,58,564
3530692475,51,47,60,78,68,54,562
3530742475,196,56,85,124,44,45,531
3530792475,160,49,80,83,39,38,471
3530842475,197,49,71,66,51,34,415
3530892475,272,58,84,53,110,62,350
3530942475,467,65,110,49,60,230,278
3530992475,551,77,161,52,95,277,352
3531042475,546,69,143,54,98,157,962
3531092475,624,76,167,53,73,101,965
3531142475,554,63,129,57,62,59,966
3531192475,247,47,71,54,53,45,642
3531242475,215,46,64,49,44,51,341
3531292475,258,66,116,53,34,44,223
3531342475,194,93,105,56,78,59,199
3531392475,100,98,112,55,163,78,237
3531442475,82,89,123,54,114,82,380
3531492475,87,81,219,51,151,75,429
3531542475,54,52,90,51,73,44,493
3531592475,47,50,57,57,60,35,314
3531642475,41,41,38,55,89,38,283
3531692475,39,38,34,51,50,36,184
3531742475,38,37,32,55,33,36,197
3531792475,41,38,32,49,35,55,159
3531842475,39,37,29,48,25,57,108
3531892475,38,36,29,48,23,57,86
3531942475,38,37,29,47,22,45,93
3531992475,59,38,36,46,31,44,79
3532042475,171,47,60,46,43,42,72
3532092475,153,44,56,46,100,44,68
3532142475,249,48,77,46,60,42,87
3532192475,412,64,130,46,36,114,393
3532242475,489,71,160,50,30,113,683
3532292475,791,85,227,53,32,62,754
3532342475,822,89,245,52,31,45,699
3532392475,786,84,240,54,29,37,574
3532442475,645,72,198,52,27,33,443
3532492475,353,54,125,49,25,32,370
3532542475,454,66,164,47,27,38,384
3532592475,258,49,90,47,24,40,410
3532642475,205,44,70,46,22,37,429
3532692475,180,41,64,46,22,32,442
3532742475,180,41,62,46,21,31,447
3532792475,152,40,52,46,21,30,434
3532842475,123,38,45,45,22,30,386
3532892475,111,38,43,45,22,31,329
3532942475,92,37,37,46,21,31,286
3532992475,94,37,41,46,21,32,270
3533042475,81,37,39,51,22,31,282
3533092475,192,42,56,49,24,33,276
3533142475,127,38,43,50,22,30,258
3533192475,131,38,45,49,21,32,249
3533242475,178,40,51,47,21,34,253
3533292475,99,38,42,47,21,37,285
3533342475,146,39,45,46,21,56,325
3533392475,196,41,54,46,22,116,337
3533442475,165,38,44,45,21,140,323
3533492475,185,40,57,45,23,126,290
3533542475,208,45,73,45,22,127,253
3533592475,257,45,70,46,21,114,213
3533642475,214,43,64,46,22,108,179
3533692475,189,41,63,46,22,91,146
3533742475,181,41,57,46,27,83,109
3533792475,162,41,60,46,23,73,84
3533842475,144,40,51,45,23,64,95
3533892475,260,47,84,45,23,53,121
3533942475,221,43,69,46,25,40,130
3533992475,159,40,57,46,22,33,121
3534042475,122,38,48,45,22,32,108
3534092475,161,46,62,46,22,32,92
3534142475,96,41,48,46,25,32,72
3534192475,91,38,36,46,25,32,68
3534242475,111,38,40,46,24,32,68
3534292475,122,38,40,46,23,33,66
3534342475,106,38,43,46,22,34,65
3534392475,186,42,53,46,24,36,65
3534442475,100,38,43,50,23,33,65
3534492475,174,41,57,50,22,33,65
3534542475,639,43,61,63,22,33,65
3534592475,417,49,76,66,25,34,62
3534642475,448,61,139,67,26,36,71
3534692475,440,64,151,62,26,33,76
3534742475,381,59,136,55,24,35,136
3534792475,374,60,118,56,25,36,171
3534842475,307,49,91,53,23,36,194
3534892475,344,51,87,55,24,34,211
3534942475,237,54,80,66,22,33,209
3534992475,279,54,87,68,25,34,232
3535042475,271,52,88,60,25,36,257
3535092475,342,54,93,62,26,35,280
3535142475,293,49,97,52,26,34,264
3535192475,238,48,84,58,24,33,211
3535242475,479,63,143,50,26,36,163
3535292475,339,55,131,58,24,34,139
3535342475,297,69,171,74,24,35,158
3535392475,301,96,154,116,25,33,230
3535442475,150,180,121,116,23,32,312
3535492475,87,83,59,105,49,32,458
3535542475,161,121,183,129,76,36,728
3535592475,135,138,156,159,87,38,965
3535642475,173,211,230,184,71,34,966
3535692475,150,184,232,289,89,56,965
3535742475,94,150,142,300,134,80,965
3535792475,109,223,223,217,101,62,965
3535842475,119,172,242,179,112,56,965
3535892475,80,125,161,213,130,43,965
3535942475,63,140,143,205,207,42,965
3535992475,69,192,179,160,143,37,965
3536042475,63,249,211,150,149,41,965
3536092475,62,186,229,137,101,38,966
3536142475,80,240,224,116,96,37,965
3536192475,82,228,234,122,151,36,965
3536242475,88,206,289,117,196,35,965
3536292475,67,253,280,122,158,33,965
3536342475,131,349,340,103,157,38,965
3536392475,130,303,292,110,161,44,965
3536442475,89,246,224,82,178,39,965
3536492475,100,216,256,92,170,36,965
3536542475,166,285,405,97,130,35,965
3536592475,130,259,276,81,330,37,965
3536642475,92,269,257,110,221,31,965
3536692475,133,259,307,118,189,33,966
3536742475,145,342,371,101,156,30,884
3536792475,117,230,209,94,240,30,780
3536842475,131,272,261,96,265,33,694
3536892475,115,228,214,93,216,35,613
3536942475,133,374,278,84,145,32,532
3536992475,132,328,263,90,79,37,463
3537042475,105,282,291,118,214,39,404
3537092475,94,266,194,102,136,35,363
3537142475,108,222,220,85,125,42,332
3537192475,85,225,224,100,98,34,312
3537242475,85,316,242,77,107,38,288
3537292475,79,252,207,74,106,34,272
3537342475,89,298,216,80,174,36,248
3537392475,104,262,240,73,118,33,229
3537442475,74,243,223,89,121,32,213
3537492475,94,288,302,79,99,35,202
3537542475,98,232,221,74,81,32,186
3537592475,73,222,196,87,116,33,176
3537642475,66,233,220,82,95,37,168
3537692475,57,202,177,78,81,33,157
3537742475,57,235,199,83,109,34,154
3537792475,56,244,167,73,86,33,151
3537842475,65,197,234,80,118,33,143
3537892475,74,258,213,78,88,32,139
3537942475,68,206,202,71,121,32,130
3537992475,56,197,158,73,139,34,126
3538042475,57,221,189,75,110,32,120
3538092475,51,151,163,78,63,33,124
3538142475,56,217,182,81,62,32,130
3538192475,48,219,215,88,68,35,128
3538242475,53,204,157,71,86,33,127
3538292475,54,218,233,72,89,35,122
3538342475,80,187,203,84,115,32,117
3538392475,64,234,230,74,121,35,110
3538442475,53,202,210,75,115,35,106
3538492475,63,215,168,81,141,34,101
3538542475,63,275,203,71,156,39,93
3538592475,65,274,248,69,164,38,90
3538642475,65,275,248,76,104,40,86
3538692475,70,304,255,74,121,83,95
3538742475,86,310,247,72,80,57,79
3538792475,84,294,251,68,71,56,85
3538842475,117,343,299,75,57,60,111
3538892475,137,458,358,67,148,153,118
3538942475,132,587,430,73,80,98,118
3538992475,165,441,354,74,50,81,120
3539042475,110,317,271,74,34,79,118
3539092475,94,299,301,80,34,86,131
3539142475,73,288,208,91,26,81,122
3539192475,82,389,222,70,30,117,164
3539242475,101,282,206,89,25,80,214
3539292475,80,276,204,85,52,68,259
3539342475,92,279,254,72,56,65,278
3539392475,80,262,190,74,64,77,339
3539442475,78,230,214,74,37,69,360
3539492475,68,179,188,71,29,57,394
3539542475,62,237,199,65,27,55,416
3539592475,62,196,152,66,62,84,426
3539642475,47,164,110,92,113,59,414
3539692475,76,154,118,66,55,47,416
3539742475,64,137,106,67,39,46,422
3539792475,48,80,74,66,27,40,422
3539842475,59,83,108,68,55,37,426
3539892475,58,136,166,59,126,37,430
3539942475,67,184,185,79,65,41,449
3539992475,81,188,260,70,55,35,464
3540042475,62,160,184,70,144,44,471
3540092475,63,183,179,69,205,46,470
3540142475,53,152,138,59,336,44,463
3540192475,57,157,166,77,207,36,461
3540242475,61,145,136,59,195,37,456
3540292475,65,176,201,74,313,62,444
3540342475,80,234,245,104,158,45,439
3540392475,73,190,176,73,85,51,432
3540442475,75,266,146,87,134,49,421
3540492475,70,166,150,74,70,38,407
3540542475,62,151,102,73,198,38,393
3540592475,57,182,110,80,166,34,376
3540642475,54,151,86,81,165,35,367
3540692475,50,151,87,77,195,42,361
3540742475,46,133,79,85,177,44,356
3540792475,45,173,61,85,78,37,348
3540842475,54,185,72,78,94,38,344
3540892475,86,150,75,75,114,42,341
3540942475,64,182,76,87,71,51,337
3540992475,78,277,146,87,38,52,330
3541042475,58,154,102,90,27,43,348
3541092475,53,171,108,96,23,35,340
3541142475,54,108,68,80,49,33,330
3541192475,63,123,67,78,112,39,318
3541242475,50,115,56,74,65,34,309
3541292475,52,97,60,75,69,34,303
3541342475,54,118,75,97,75,35,298
3541392475,44,66,45,80,40,35,291
3541442475,49,110,40,75,48,35,286
3541492475,51,104,69,72,52,35,281
3541542475,47,113,58,70,70,41,277
3541592475,48,110,75,77,57,38,272
3541642475,50,123,89,75,126,51,267
3541692475,47,135,73,77,91,38,258
3541742475,50,121,65,72,81,34,252
3541792475,44,130,65,72,110,41,246
3541842475,44,103,55,65,86,36,243
3541892475,46,103,54,68,119,38,240
3541942475,45,119,62,66,64,33,237
3541992475,41,110,41,62,91,36,234
3542042475,43,92,75,69,122,36,230
3542092475,42,78,53,61,193,44,228
3542142475,42,90,48,79,114,37,223
3542192475,42,108,53,60,156,48,220
3542242475,41,116,74,64,117,44,219
3542292475,42,101,52,63,62,38,220
3542342475,46,99,84,65,98,41,218
3542392475,41,91,53,64,107,42,216
3542442475,41,92,66,60,148,41,213
3542492475,40,101,64,68,117,40,206
3542542475,39,86,53,66,76,37,205
3542592475,39,111,56,64,55,33,207
3542642475,41,89,61,64,81,34,206
3542692475,42,130,59,65,57,34,204
3542742475,40,116,54,62,54,35,200
3542792475,42,99,61,58,71,36,198
3542842475,42,100,53,61,52,33,196
3542892475,43,99,79,62,55,33,192
3542942475,41,110,77,63,44,33,190
3542992475,43,129,52,67,75,37,188
3543042475,44,123,76,64,65,34,186
3543092475,45,100,85,63,81,36,183
3543142475,41,99,69,64,50,32,181
3543192475,41,110,68,62,75,33,182
3543242475,42,113,65,67,53,32,180
3543292475,41,110,54,65,45,32,177
3543342475,40,101,74,67,40,32,174
3543392475,45,116,68,72,78,35,171
3543442475,43,84,62,75,59,34,168
3543492475,42,100,73,64,52,34,166
3543542475,40,90,65,65,60,34,162
3543592475,43,80,84,73,70,35,160
3543642475,40,83,66,69,66,32,157
3543692475,41,100,81,71,41,33,155
3543742475,46,102,75,68,36,32,154
3543792475,42,83,68,79,45,32,151
3543842475,39,100,65,66,42,32,147
3543892475,41,79,68,75,59,32,145
3543942475,39,92,49,80,51,32,143
3543992475,40,91,72,72,59,33,138
3544042475,40,78,46,72,50,34,135
3544092475,41,71,73,78,58,32,132
3544142475,41,64,53,73,50,33,130
3544192475,40,81,67,68,32,31,127
3544242475,42,93,73,69,48,32,123
3544292475,40,93,61,64,43,32,120
3544342475,40,87,89,70,40,32,117
3544392475,40,112,53,78,37,31,116
3544442475,41,83,65,71,42,32,115
3544492475,41,91,66,76,45,32,112
3544542475,39,77,50,60,49,32,111
3544592475,40,115,69,68,52,32,108
3544642475,40,95,75,72,36,33,106
3544692475,39,80,58,70,33,31,104
3544742475,39,104,52,73,46,32,102
3544792475,39,95,46,68,34,31,99
3544842475,48,78,70,68,28,31,97
3544892475,41,92,64,74,29,30,94
3544942475,41,95,61,69,31,31,92
3544992475,40,106,69,68,25,31,90
3545042475,39,82,78,60,37,31,87
3545092475,41,78,69,69,27,32,84
3545142475,41,65,65,62,22,31,82
3545192475,41,77,72,74,27,31,81
3545242475,42,89,76,69,46,31,80
3545292475,41,82,54,66,44,33,78
3545342475,39,92,93,68,43,32,76
3545392475,43,82,57,67,50,33,74
3545442475,40,136,60,79,43,31,73
3545492475,42,102,78,66,36,31,71
3545542475,40,94,48,84,40,32,69
3545592475,40,106,62,73,27,32,67
3545642475,40,109,65,71,32,31,65
3545692475,42,109,57,65,41,31,63
3545742475,41,96,83,62,53,32,61
3545792475,39,88,70,66,31,31,61
3545842475,41,87,66,72,35,32,61
3545892475,40,103,58,70,28,31,62
3545942475,39,88,52,61,38,31,64
3545992475,39,105,59,56,37,31,65
3546042475,39,74,57,64,32,31,65
3546092475,39,94,54,63,36,30,65
3546142475,39,99,46,59,46,31,65
3546192475,39,82,55,60,40,32,64
3546242475,38,84,48,57,46,32,62
3546292475,38,82,70,70,37,31,62
3546342475,39,77,47,61,32,31,60
3546392475,38,97,63,55,38,34,60
3546442475,48,66,55,51,27,37,75
3546492475,42,86,59,53,25,41,81
3546542475,45,124,68,59,27,43,86
3546592475,42,81,59,58,29,38,94
3546642475,44,114,68,81,25,33,93
3546692475,42,82,82,71,26,31,90
3546742475,41,131,72,66,60,30,87
3546792475,41,85,64,61,51,30,81
3546842475,41,86,58,62,45,31,75
3546892475,40,113,64,61,58,32,71
3546942475,41,109,55,67,40,30,67
3546992475,42,99,67,64,51,30,62
3547042475,40,71,52,70,47,29,59
3547092475,39,109,62,76,38,30,55
3547142475,47,122,64,63,44,30,53
3547192475,41,92,60,73,63,33,50
3547242475,40,118,69,60,37,32,48
3547292475,39,117,57,65,32,30,45
3547342475,39,107,71,67,35,30,46
3547392475,38,124,70,69,37,30,56
3547442475,39,118,60,64,55,30,61
3547492475,39,101,62,62,52,31,63
3547542475,41,100,74,64,40,30,64
3547592475,40,93,63,58,54,30,65
3547642475,40,85,61,63,34,30,65
3547692475,41,107,63,61,38,30,65
3547742475,39,96,52,63,33,30,65
3547792475,41,103,52,64,40,30,65
3547842475,39,83,56,66,35,30,65
3547892475,39,66,63,57,31,30,65
3547942475,40,81,63,61,42,30,65
3547992475,39,69,67,69,31,30,66
3548042475,39,79,60,64,42,29,65
3548092475,41,107,58,64,38,31,65
3548142475,44,87,82,68,50,31,65
3548192475,46,93,62,68,53,31,65
3548242475,45,93,64,64,38,30,65
3548292475,42,98,50,67,53,30,65
3548342475,40,117,87,62,41,30,65
3548392475,40,93,70,68,47,32,65
3548442475,39,88,64,73,37,30,65
3548492475,41,110,80,69,32,30,65
3548542475,41,115,78,68,33,31,65
3548592475,41,144,64,75,36,30,65
3548642475,40,96,86,73,29,32,65
3548692475,39,81,60,66,26,31,65
3548742475,39,86,57,64,25,31,65
3548792475,40,107,69,61,49,30,65
3548842475,40,113,75,63,31,30,65
3548892475,40,103,56,64,25,31,65
3548942475,41,135,84,58,35,31,65
3548992475,43,162,73,61,35,30,65
3549042475,40,107,72,61,27,30,65
3549092475,48,109,70,70,34,30,65
3549142475,41,96,83,62,35,30,65
3549192475,41,115,70,63,25,30,65
3549242475,40,106,66,58,27,30,65
3549292475,39,89,65,59,24,30,65
3549342475,39,110,67,58,22,31,65
3549392475,39,115,58,64,38,30,65
3549442475,39,109,74,73,28,30,65
3549492475,39,90,59,64,36,30,65
3549542475,40,108,85,73,35,30,65
3549592475,40,108,57,74,43,30,65
3549642475,39,89,62,62,31,30,65
3549692475,39,88,60,63,33,31,65
3549742475,39,60,56,59,37,30,65
3549792475,40,97,70,65,32,30,65
3549842475,39,90,70,69,29,30,65
3549892475,39,90,58,64,32,30,65
3549942475,43,89,70,64,33,31,66
3549992475,40,69,49,61,38,30,65
3550042475,39,93,63,66,70,32,65
3550092475,39,102,57,59,46,32,66
3550142475,39,85,48,57,58,31,65
3550192475,43,111,48,66,35,30,65
3550242475,40,101,64,54,45,32,65
3550292475,40,76,62,63,41,30,65
3550342475,39,124,52,57,40,32,65
3550392475,38,83,79,58,48,31,65
3550442475,40,90,53,56,31,30,65
3550492475,39,104,61,62,40,31,65
3550542475,39,101,47,62,51,31,65
3550592475,40,83,48,59,45,30,65
3550642475,40,115,64,62,30,30,65
3550692475,40,105,62,60,39,30,64
3550742475,44,92,59,59,34,30,65
3550792475,41,101,76,58,55,31,65
3550842475,40,107,70,54,39,31,65
3550892475,40,101,61,58,34,31,65
3550942475,40,126,72,57,31,30,65
3550992475,39,115,73,57,32,30,65
3551042475,41,109,68,65,50,30,65
3551092475,40,94,77,59,44,31,65
3551142475,40,130,93,62,44,30,65
3551192475,39,112,102,56,33,30,65
3551242475,45,138,86,60,35,30,65
3551292475,42,113,92,60,28,30,65
3551342475,40,116,82,58,41,30,65
3551392475,40,95,80,61,55,31,65
3551442475,40,88,86,57,50,30,65
3551492475,41,102,73,59,47,31,65
3551542475,40,102,61,56,56,31,65
3551592475,39,117,51,65,52,30,65
3551642475,39,95,73,57,56,32,65
3551692475,39,94,52,65,92,34,65
3551742475,40,105,65,56,65,33,65
3551792475,39,93,51,69,41,37,65
3551842475,39,81,81,68,41,66,73
3551892475,39,98,59,65,77,49,61
3551942475,39,70,69,61,50,46,70
3551992475,39,91,80,75,68,48,67
3552042475,44,98,72,67,70,71,65
3552092475,40,81,59,72,46,47,67
3552142475,39,89,63,59,76,75,68
3552192475,39,115,50,64,136,64,64
3552242475,38,92,70,66,101,65,69
3552292475,43,96,69,72,126,54,58
3552342475,41,108,85,63,113,61,51
3552392475,43,104,61,62,103,65,58
3552442475,40,92,71,68,105,54,56
3552492475,40,117,86,70,107,53,59
3552542475,39,97,60,72,118,53,62
3552592475,39,121,97,60,92,55,64
3552642475,40,84,58,69,138,43,64
3552692475,39,107,75,65,110,61,65
3552742475,38,87,67,86,102,90,126
3552792475,38,76,52,74,155,104,100
3552842475,40,81,84,75,103,80,79
3552892475,39,89,57,68,92,58,65
3552942475,39,90,73,74,136,72,57
3552992475,38,95,47,63,114,87,62
3553042475,38,101,63,75,89,77,64
3553092475,39,90,69,72,68,62,88
3553142475,39,80,55,73,107,79,72
3553192475,38,82,51,61,126,101,61
3553242475,45,100,57,71,91,68,60
3553292475,41,81,61,68,62,50,63
3553342475,42,108,52,70,82,40,64
3553392475,38,91,54,70,50,36,64
3553442475,40,94,72,71,77,40,65
3553492475,40,88,60,65,68,37,65
3553542475,40,105,77,64,46,36,65
3553592475,39,74,62,62,76,39,65
3553642475,42,82,59,76,93,50,65
3553692475,40,84,76,67,62,38,65
3553742475,39,86,55,69,66,36,65
3553792475,40,86,56,71,75,37,64
3553842475,40,94,79,65,80,37,65
3553892475,40,149,58,62,51,34,65
3553942475,41,98,47,62,69,39,65
3553992475,40,99,79,63,70,36,65
3554042475,39,73,61,64,51,34,65
3554092475,39,82,69,60,66,38,65
3554142475,39,77,58,65,59,38,65
3554192475,38,101,48,73,36,33,65
3554242475,40,65,60,68,66,38,65
3554292475,39,77,60,81,61,34,65
3554342475,39,75,62,68,55,34,66
3554392475,39,92,63,74,44,32,65
3554442475,39,85,58,74,68,32,65
3554492475,40,84,51,72,50,33,65
3554542475,39,134,74,67,108,39,65
3554592475,38,110,50,68,57,40,65
3554642475,39,90,53,70,68,50,65
3554692475,38,100,57,68,86,37,65
3554742475,42,77,71,73,50,32,65
3554792475,40,104,52,70,64,34,65
3554842475,39,92,73,72,73,38,65
3554892475,38,94,56,66,45,32,65
3554942475,38,67,58,62,52,31,65
3554992475,39,72,54,64,45,31,65
3555042475,38,83,49,65,35,30,65
3555092475,38,74,47,77,48,31,66
3555142475,38,93,45,75,33,30,65
3555192475,38,86,48,70,62,30,65
3555242475,38,62,55,78,53,30,65
3555292475,41,89,40,68,92,33,65
3555342475,39,93,64,72,66,30,65
3555392475,39,88,62,76,95,35,65
3555442475,39,99,54,84,101,47,65
3555492475,39,94,52,80,97,46,65
3555542475,39,76,64,92,87,37,65
3555592475,39,99,46,87,130,41,65
3555642475,39,64,74,77,117,45,65
3555692475,39,88,44,75,66,39,65
3555742475,39,65,36,79,101,59,65
3555792475,39,68,49,70,120,56,65
3555842475,38,87,50,80,57,40,65
3555892475,39,75,36,66,48,37,65
3555942475,39,51,32,71,103,63,65
3555992475,40,65,32,70,52,41,65
3556042475,40,46,30,59,34,33,65
3556092475,45,49,37,86,25,30,65
3556142475,40,40,32,61,22,29,65
3556192475,40,39,31,76,21,29,65
3556242475,39,37,31,57,20,30,66
3556292475,39,37,30,67,21,31,64
3556342475,38,37,29,66,21,31,65
3556392475,38,36,29,53,21,31,64
3556442475,38,36,29,63,21,31,65
3556492475,38,36,29,59,21,30,65
3556542475,38,36,28,50,21,30,65
3556592475,38,36,29,68,20,30,66
3556642475,38,36,28,54,20,30,65
3556692475,38,36,28,56,20,30,65
3556742475,38,36,28,49,21,30,65
3556792475,38,36,28,55,20,30,66
3556842475,38,36,29,49,21,30,65
3556892475,38,36,28,58,21,30,65
3556942475,38,36,29,50,21,30,65
3556992475,38,36,28,56,21,30,65
3557042475,38,36,28,52,20,30,65
3557092475,38,36,28,56,21,30,65
3557142475,38,36,28,55,21,30,65
3557192475,38,36,28,49,21,29,65
3557242475,38,36,29,51,21,30,65
3557292475,38,36,28,59,21,30,65
3557342475,38,36,28,51,21,30,65
3557392475,38,36,28,55,21,30,65
3557442475,38,36,28,48,21,30,65
3557492475,38,36,28,59,21,30,65
3557542475,38,35,28,50,21,30,65
3557592475,38,36,28,55,20,30,65
3557642475,38,36,28,54,21,30,65
3557692475,38,36,28,51,21,30,66
3557742475,38,36,28,52,20,30,66
3557792475,38,36,28,50,21,30,66
3557842475,38,36,28,53,21,30,66
3557892475,38,36,28,57,21,30,66
3557942475,38,36,28,50,20,30,66
3557992475,38,36,28,57,20,30,66
3558042475,38,36,28,50,21,30,66
3558092475,38,36,28,48,20,29,66
3558142475,38,36,28,61,21,29,60
3558192475,38,37,29,52,20,30,56
3558242475,40,42,30,52,21,30,53
3558292475,38,39,35,58,20,30,50
3558342475,38,38,32,53,21,30,46
3558392475,38,39,36,53,20,30,46
3558442475,38,37,31,48,21,30,55
3558492475,38,36,29,58,21,30,61
3558542475,46,78,92,54,21,30,64
3558592475,41,50,48,50,21,29,65
3558642475,40,46,59,53,21,31,66
3558692475,38,41,39,49,21,30,66
3558742475,38,53,38,51,21,30,66
3558792475,38,68,41,53,21,30,66
3558842475,38,48,32,53,21,30,66
3558892475,38,41,42,50,21,29,66
3558942475,38,49,56,57,20,29,66
3558992475,38,57,46,54,21,30,66
3559042475,38,53,48,57,21,30,66
3559092475,38,43,35,53,20,30,66
3559142475,38,39,38,50,20,30,66
3559192475,38,37,33,49,21,30,65
3559242475,38,36,30,50,21,30,65
3559292475,38,36,29,49,21,30,65
3559342475,38,36,29,46,21,30,65
3559392475,38,37,29,55,21,30,65
3559442475,38,36,28,49,21,30,65
3559492475,38,36,28,49,21,30,65
3559542475,38,36,29,54,21,30,65
3559592475,38,37,28,51,21,30,65
3559642475,38,36,28,48,21,30,65
3559692475,38,36,28,52,21,30,65
3559742475,38,36,28,48,20,30,65
3559792475,38,37,29,59,21,30,65
3559842475,39,36,28,50,21,30,65
3559892475,38,38,28,48,21,30,65
3559942475,38,37,29,50,20,30,65
3559992475,38,38,29,56,21,30,65
3560042475,38,38,38,51,21,30,65
3560092475,39,39,44,50,21,30,65
3560142475,38,38,35,52,20,30,65
3560192475,38,57,47,55,21,30,65
3560242475,38,45,35,54,21,30,65
3560292475,38,42,54,52,20,30,65
3560342475,38,48,38,51,21,30,65
3560392475,38,45,45,56,21,30,65
3560442475,38,52,46,56,21,30,65
3560492475,38,42,51,58,21,29,65
3560542475,38,58,41,53,21,30,65
3560592475,38,62,47,58,21,30,65
3560642475,38,45,34,51,21,30,65
3560692475,39,56,50,54,21,29,65
3560742475,47,89,130,53,21,30,64
3560792475,50,69,116,55,21,30,65
3560842475,50,70,76,72,21,30,64
3560892475,47,80,62,58,21,29,59
3560942475,43,66,42,54,21,29,59
3560992475,45,71,49,61,21,30,58
3561042475,41,50,43,61,20,30,57
3561092475,45,59,45,62,21,30,58
3561142475,41,58,44,54,21,30,58
3561192475,39,68,42,56,20,29,57
3561242475,42,68,42,59,20,30,56
3561292475,41,96,42,59,21,30,54
3561342475,43,60,50,54,20,30,54
3561392475,54,65,45,60,21,30,54
3561442475,46,65,41,55,21,30,52
3561492475,48,88,46,57,20,29,52
3561542475,44,84,46,57,20,30,53
3561592475,42,60,51,55,21,30,49
3561642475,48,88,55,62,21,30,51
3561692475,66,70,50,59,20,30,50
3561742475,52,58,51,54,20,29,50
3561792475,46,74,45,60,20,29,54
3561842475,50,58,46,52,20,30,54
3561892475,44,80,59,58,21,29,54
3561942475,57,78,52,55,21,29,54
3561992475,50,52,47,58,21,30,54
3562042475,63,84,56,53,21,29,55
3562092475,52,71,50,59,20,30,55
3562142475,48,51,49,54,21,29,54
3562192475,50,76,43,61,21,30,54
3562242475,46,51,49,55,21,30,54
3562292475,45,66,48,59,21,30,51
3562342475,45,54,54,69,21,30,50
3562392475,45,64,56,61,21,30,49
3562442475,46,61,43,57,21,29,48
3562492475,43,69,49,57,21,29,48
3562542475,43,74,49,53,20,29,47
3562592475,45,54,45,61,20,29,45
3562642475,42,60,49,56,21,30,45
3562692475,49,58,43,59,21,29,49
3562742475,42,52,48,60,21,30,57
3562792475,42,70,53,61,21,29,60
3562842475,43,85,48,56,21,30,62
3562892475,43,67,37,64,21,29,64
3562942475,44,74,44,59,21,29,64
3562992475,51,51,48,56,20,29,65
3563042475,43,62,41,63,21,29,65
3563092475,45,66,48,53,20,29,66
3563142475,48,49,37,60,21,29,65
3563192475,65,46,54,53,20,30,64
3563242475,57,41,39,57,21,29,64
3563292475,65,55,37,60,21,29,64
3563342475,48,43,32,56,20,30,64
3563392475,42,40,38,52,21,30,65
3563442475,40,37,31,54,20,30,65
3563492475,39,37,30,51,20,29,65
3563542475,38,38,29,50,20,30,65
3563592475,38,37,29,51,20,29,65
3563642475,38,37,28,60,20,30,65
3563692475,38,36,28,50,20,30,65
3563742475,38,36,29,48,21,30,65
3563792475,38,36,28,49,21,30,65
3563842475,38,36,28,56,21,30,65
3563892475,38,36,28,50,20,30,65
3563942475,38,42,39,51,20,29,65
3563992475,38,40,32,51,21,29,65
3564042475,39,39,36,53,20,29,65
3564092475,38,38,44,52,20,30,65
3564142475,38,42,40,54,20,29,65
3564192475,38,38,32,49,20,29,65
3564242475,38,37,30,52,20,30,65
3564292475,38,36,29,50,21,30,65
3564342475,38,36,29,52,21,30,65
3564392475,38,36,29,51,21,30,65
3564442475,38,36,29,48,20,30,65
3564492475,38,36,28,53,21,30,65
3564542475,38,37,28,59,21,30,66
3564592475,38,36,29,51,21,30,65
3564642475,38,37,29,60,20,30,65
3564692475,38,36,29,53,21,30,65
3564742475,38,38,29,52,21,30,65
3564792475,38,37,28,49,20,30,65
3564842475,38,36,28,56,21,29,65
3564892475,38,36,28,50,21,30,65
3564942475,38,36,28,51,21,29,65
3564992475,38,36,28,52,21,30,65
3565042475,38,36,28,49,20,30,65
3565092475,38,37,28,54,21,30,65
3565142475,38,36,29,52,21,30,65
3565192475,37,38,29,51,21,29,65
3565242475,38,38,29,50,20,29,65
3565292475,38,39,29,52,20,29,65
3565342475,38,37,29,49,20,29,65
3565392475,38,36,28,50,21,30,65
3565442475,38,39,28,54,21,30,65
3565492475,38,37,29,51,21,30,65
3565542475,38,38,29,50,21,29,65
3565592475,38,41,29,53,21,30,65
3565642475,38,37,29,51,21,29,65
3565692475,38,38,28,52,21,30,65
3565742475,38,39,28,48,20,30,65
3565792475,38,37,29,51,21,30,65
3565842475,38,37,28,49,21,30,65
3565892475,38,37,28,48,21,30,65
3565942475,38,37,28,48,21,29,65
3565992475,38,36,29,46,21,30,65
3566042475,38,36,28,61,21,29,65
3566092475,39,36,28,51,21,30,65
3566142475,38,36,28,48,21,29,65
3566192475,38,36,28,47,21,29,65
3566242475,38,36,28,65,21,29,65
3566292475,38,36,28,52,20,29,65
3566342475,38,36,28,51,21,29,65
3566392475,38,36,28,48,21,29,65
3566442475,38,36,28,56,20,29,65
3566492475,39,37,28,53,20,30,65
3566542475,38,38,28,49,20,30,65
3566592475,38,37,28,51,20,30,65
3566642475,38,37,29,50,21,30,65
3566692475,38,37,28,50,21,30,65
3566742475,39,39,29,48,20,30,65
3566792475,38,37,29,47,21,29,65
3566842475,38,37,29,52,21,29,65
3566892475,38,37,28,50,21,29,65
3566942475,38,37,29,48,20,29,65
3566992475,38,37,29,50,21,30,64
3567042475,38,38,29,48,21,29,65
3567092475,38,38,28,51,21,29,65
3567142475,38,38,28,51,20,30,65
3567192475,39,38,40,52,21,29,65
3567242475,38,38,33,52,21,29,65
3567292475,38,67,45,55,20,29,65
3567342475,39,90,57,64,21,29,66
3567392475,41,100,92,74,20,30,66
3567442475,41,121,71,78,25,29,65
3567492475,42,115,148,113,32,29,60
3567542475,42,114,118,124,28,30,57
3567592475,43,134,105,120,28,35,57
3567642475,44,124,130,152,25,37,60
3567692475,43,120,113,155,23,33,59
3567742475,43,124,138,164,23,31,61
3567792475,50,121,107,149,104,40,59
3567842475,45,119,118,174,206,76,58
3567892475,41,98,111,163,144,48,57
3567942475,44,94,73,141,90,38,64
3567992475,41,88,74,129,70,34,69
3568042475,40,88,72,105,96,37,73
3568092475,40,88,88,105,92,33,77
3568142475,39,79,70,108,56,32,82
3568192475,39,105,52,115,50,32,82
3568242475,43,101,68,104,69,32,81
3568292475,40,78,61,110,46,30,78
3568342475,47,53,51,118,29,30,73
3568392475,43,44,37,87,23,30,70
3568442475,47,49,34,105,21,30,67
3568492475,41,41,31,85,21,29,63
3568542475,39,38,29,99,20,29,60
3568592475,39,37,29,74,21,30,61
3568642475,39,36,30,99,21,30,57
3568692475,38,36,29,73,20,30,52
3568742475,38,36,29,85,21,30,59
3568792475,38,36,29,79,20,29,62
3568842475,38,36,28,66,21,29,63
3568892475,38,36,28,73,20,29,64
3568942475,38,36,28,58,20,29,65
3568992475,38,36,28,68,21,29,65
3569042475,38,36,28,57,21,29,65
3569092475,38,36,28,61,21,29,65
3569142475,37,37,28,60,21,29,65
3569192475,38,37,29,64,20,29,65
3569242475,38,37,28,64,20,29,65
3569292475,38,36,28,52,20,29,64
3569342475,38,36,29,63,20,29,65
3569392475,38,36,29,52,21,29,65
3569442475,38,36,29,56,21,29,65
3569492475,38,36,29,51,21,29,65
3569542475,38,36,28,62,20,29,65
3569592475,44,36,29,53,20,29,66
3569642475,40,36,29,58,21,30,65
3569692475,39,36,29,55,21,30,114
3569742475,38,36,28,49,21,29,181
3569792475,38,36,28,54,21,29,213
3569842475,38,36,28,55,20,29,221
3569892475,38,36,28,54,21,29,221
3569942475,38,36,28,49,20,29,217
3569992475,38,36,28,60,21,29,205
3570042475,38,37,29,56,21,29,184
3570092475,38,37,29,79,21,29,159
3570142475,38,37,33,58,21,30,133
3570192475,38,40,42,54,21,29,114
3570242475,38,37,33,53,21,30,98
3570292475,38,37,30,49,21,30,79
3570342475,38,37,29,61,21,30,64
3570392475,38,36,29,52,21,30,65
3570442475,38,37,29,55,21,30,65
3570492475,38,36,29,59,21,29,65
3570542475,38,37,29,54,20,30,65
3570592475,38,37,28,54,21,29,65
3570642475,38,37,30,59,21,30,65
3570692475,38,38,32,56,20,29,65
3570742475,38,37,30,52,21,29,65
3570792475,38,39,35,56,20,30,56
3570842475,39,37,31,61,21,30,53
3570892475,38,37,29,55,21,30,50
3570942475,38,38,29,55,21,30,49
3570992475,38,38,33,52,21,30,49
3571042475,38,37,30,52,21,30,51
3571092475,38,37,29,55,20,30,50
3571142475,38,37,36,54,21,30,50
3571192475,38,37,31,52,21,30,51
3571242475,38,38,39,52,22,30,54
3571292475,38,37,32,56,21,30,55
3571342475,38,38,34,51,21,30,56
3571392475,38,38,33,52,21,30,54
3571442475,37,38,33,52,21,30,53
3571492475,38,37,33,53,21,30,55
3571542475,38,37,40,56,21,30,54
3571592475,38,38,33,51,21,30,50
3571642475,38,37,31,52,21,30,47
3571692475,38,37,34,52,21,30,46
3571742475,39,37,30,52,21,29,45
3571792475,38,39,33,49,21,30,52
3571842475,39,39,33,56,21,30,59
3571892475,38,38,33,56,21,30,62
3571942475,38,37,34,53,20,29,64
3571992475,39,40,40,50,20,30,57
3572042475,38,38,33,52,20,30,61
3572092475,38,38,31,48,21,30,63
3572142475,38,39,34,59,20,30,64
3572192475,38,41,44,54,21,30,54
3572242475,38,38,36,50,21,30,58
3572292475,38,38,34,71,21,30,55
3572342475,38,37,30,63,21,30,56
3572392475,38,37,30,55,21,29,51
3572442475,38,38,35,53,20,30,50
3572492475,38,37,31,56,21,30,49
3572542475,38,37,29,102,20,30,49
3572592475,38,38,29,94,21,30,51
3572642475,38,38,29,85,20,30,52
3572692475,39,37,29,107,20,30,53
3572742475,38,37,29,93,20,29,58
3572792475,38,36,28,104,21,30,60
3572842475,39,36,28,144,21,30,66
3572892475,42,36,29,152,21,30,78
3572942475,40,37,29,112,20,30,86
3572992475,39,36,29,68,21,30,98
3573042475,39,36,29,53,21,30,98
3573092475,37,36,28,49,21,30,85
3573142475,38,36,28,47,21,30,66
3573192475,38,36,29,47,21,31,63
3573242475,39,36,29,49,21,30,69
3573292475,38,36,29,53,21,30,83
3573342475,38,36,29,61,21,30,90
3573392475,38,36,29,71,21,30,87
3573442475,38,38,31,81,21,30,77
3573492475,38,37,31,78,21,30,72
3573542475,38,37,30,76,21,30,70
3573592475,39,37,31,81,21,30,70
3573642475,39,37,32,86,21,29,73
3573692475,39,37,32,87,21,30,82
3573742475,39,37,30,77,21,30,89
3573792475,38,36,30,76,21,31,85
3573842475,39,37,30,67,21,30,86
3573892475,38,36,29,72,21,30,83
3573942475,38,36,29,65,21,29,80
3573992475,38,36,29,69,21,30,78
3574042475,38,36,29,67,21,30,77
3574092475,38,36,29,68,21,29,74
3574142475,41,36,29,78,21,29,71
3574192475,71,38,34,76,21,30,70
3574242475,81,38,38,66,21,29,72
3574292475,123,40,52,52,21,30,70
3574342475,117,41,51,107,21,29,67
3574392475,111,57,59,84,21,30,66
3574442475,101,108,119,111,23,30,64
3574492475,97,71,102,161,23,30,62
3574542475,79,84,127,153,21,29,64
3574592475,64,157,156,165,21,30,61
3574642475,85,232,309,235,21,30,64
3574692475,63,174,225,273,21,31,95
3574742475,57,155,169,346,22,30,184
3574792475,57,135,141,348,22,30,283
3574842475,47,112,100,480,43,31,345
3574892475,41,79,78,350,38,30,369
3574942475,57,92,133,382,45,30,362
3574992475,57,103,97,363,29,29,320
3575042475,59,65,54,286,24,30,271
3575092475,59,47,41,131,32,31,205
3575142475,60,42,60,126,24,31,131
3575192475,51,41,41,86,24,32,133
3575242475,44,39,33,71,22,30,150
3575292475,40,37,31,71,22,30,147
3575342475,38,37,29,56,22,29,140
3575392475,38,36,29,72,22,30,132
3575442475,38,36,28,90,22,30,122
3575492475,38,36,28,120,24,30,112
3575542475,39,36,29,101,24,30,106
3575592475,38,36,29,146,22,29,96
3575642475,38,36,28,120,21,30,91
3575692475,38,36,28,117,21,29,90
3575742475,39,36,29,91,21,29,90
3575792475,38,36,29,131,21,29,91
3575842475,38,36,28,81,21,29,94
3575892475,38,36,28,79,23,30,93
3575942475,38,36,29,101,22,30,91
3575992475,38,36,28,71,22,31,82
3576042475,38,36,28,64,22,36,85
3576092475,38,36,28,76,22,40,88
3576142475,38,36,29,56,22,47,89
3576192475,38,35,29,49,23,61,73
3576242475,38,36,29,47,22,60,63
3576292475,38,36,28,46,22,46,58
3576342475,38,36,28,46,21,35,61
3576392475,38,36,28,47,22,33,64
3576442475,38,36,28,46,21,50,64
3576492475,38,37,28,47,20,53,64
3576542475,38,36,28,46,21,39,65
3576592475,38,36,28,49,20,32,65
3576642475,38,36,28,49,21,30,65
3576692475,38,36,29,49,21,29,65
3576742475,38,36,28,52,21,30,65
3576792475,39,36,28,55,21,29,65
3576842475,38,36,30,56,21,30,65
3576892475,38,36,29,65,21,30,65
3576942475,38,36,29,114,22,31,65
3576992475,38,36,29,85,22,31,65
3577042475,38,35,29,67,22,31,66
3577092475,37,36,29,62,22,31,64
3577142475,39,37,29,59,22,31,64
3577192475,38,36,29,69,21,30,62
3577242475,38,36,29,66,22,30,62
3577292475,38,36,29,67,21,30,60
3577342475,39,36,29,72,21,30,61
3577392475,38,36,29,69,21,30,58
3577442475,38,36,29,62,22,30,60
3577492475,38,36,29,73,21,31,61
3577542475,38,36,30,76,21,30,61
3577592475,38,36,29,74,21,32,59
3577642475,38,36,29,64,21,30,62
3577692475,38,36,29,65,21,30,62
3577742475,38,36,29,62,21,30,61
3577792475,38,36,29,70,21,30,60
3577842475,38,36,29,68,21,30,61
3577892475,37,36,29,67,21,30,61
3577942475,38,36,29,65,21,30,61
3577992475,38,36,29,72,21,30,61
3578042475,38,36,29,62,21,30,60
3578092475,38,36,29,73,21,30,60
3578142475,38,36,29,67,21,30,62
3578192475,38,36,28,63,21,31,58
3578242475,38,36,28,56,21,30,60
3578292475,38,36,29,57,21,30,59
3578342475,38,36,28,55,21,30,54
3578392475,39,36,29,57,21,30,53
3578442475,38,36,28,57,21,29,54
3578492475,38,36,28,57,21,30,54
3578542475,38,36,28,60,21,30,52
3578592475,38,36,29,60,21,30,51
3578642475,38,36,29,71,21,29,50
3578692475,38,36,28,67,21,30,49
3578742475,38,36,29,86,21,30,48
3578792475,39,36,29,74,21,29,50
3578842475,48,36,29,64,20,30,50
3578892475,88,38,36,52,21,30,50
3578942475,73,44,42,65,21,29,58
3578992475,76,42,65,67,21,29,61
3579042475,94,58,130,87,22,29,58
3579092475,104,69,110,139,21,29,56
3579142475,90,83,104,113,21,28,60
3579192475,88,84,97,161,21,29,61
3579242475,83,93,150,143,21,29,62
3579292475,98,112,126,130,21,30,56
3579342475,116,155,137,165,21,29,56
3579392475,113,116,157,168,21,29,62
3579442475,137,195,194,185,21,31,65
3579492475,154,130,129,174,20,30,103
3579542475,120,127,164,181,21,30,166
3579592475,120,123,172,141,21,31,209
3579642475,82,148,122,122,21,32,262
3579692475,91,162,154,121,22,32,401
3579742475,73,123,180,109,21,31,530
3579792475,92,126,133,90,21,31,572
3579842475,76,118,125,88,21,31,551
3579892475,61,117,84,93,21,30,505
3579942475,61,164,118,91,21,30,463
3579992475,55,179,120,81,38,30,427
3580042475,51,142,121,82,39,30,404
3580092475,53,158,126,93,27,30,389
3580142475,48,147,84,79,23,30,380
3580192475,46,108,94,83,21,30,380
3580242475,51,155,126,84,21,30,382
3580292475,48,164,96,73,21,30,386
3580342475,45,125,98,85,21,30,389
3580392475,46,111,94,84,21,30,390
3580442475,48,150,118,86,21,31,389
3580492475,51,146,112,76,29,36,389
3580542475,72,133,196,74,24,37,400
3580592475,52,128,129,71,22,34,423
3580642475,54,121,128,70,21,32,452
3580692475,52,154,131,77,21,31,470
3580742475,48,110,98,72,21,30,474
3580792475,49,121,129,80,21,30,469
3580842475,43,102,89,74,21,30,452
3580892475,49,119,99,77,21,30,431
3580942475,46,106,79,75,21,29,405
3580992475,49,125,87,84,21,29,382
3581042475,44,121,75,69,20,30,360
3581092475,49,141,103,78,21,30,340
3581142475,43,110,95,78,21,30,316
3581192475,43,125,88,78,21,30,291
3581242475,41,105,84,77,21,30,266
3581292475,48,94,81,71,21,30,244
3581342475,45,136,101,78,20,30,223
3581392475,43,114,76,67,21,30,202
3581442475,131,107,75,71,21,30,181
3581492475,168,133,96,74,21,30,161
3581542475,130,96,65,78,21,30,145
3581592475,106,91,90,68,22,30,123
3581642475,88,84,82,76,21,30,106
3581692475,133,112,87,71,21,30,86
3581742475,110,104,75,73,20,30,71
3581792475,96,101,85,82,21,30,67
3581842475,81,105,65,86,21,30,67
3581892475,74,106,69,80,21,30,67
3581942475,66,88,61,70,21,30,67
3581992475,95,96,88,67,21,30,66
3582042475,89,102,72,71,21,30,66
3582092475,101,120,63,65,20,29,65
3582142475,81,124,73,69,21,30,66
3582192475,77,96,61,70,20,30,65
3582242475,69,106,69,77,21,30,65
3582292475,75,113,89,71,21,29,65
3582342475,69,111,63,61,20,30,65
3582392475,62,109,79,61,21,29,65
3582442475,66,113,90,73,21,29,65
3582492475,71,114,76,65,21,30,65
3582542475,71,111,86,64,21,30,65
3582592475,62,101,104,74,21,30,65
3582642475,79,131,111,58,20,29,59
3582692475,134,148,141,62,20,30,58
3582742475,92,118,95,65,21,30,57
3582792475,105,113,102,67,21,29,56
3582842475,84,99,116,62,21,29,58
3582892475,90,79,106,60,20,29,58
3582942475,73,126,86,61,21,30,57
3582992475,104,119,122,71,21,29,58
3583042475,65,93,73,67,21,30,57
3583092475,63,110,79,74,21,30,58
3583142475,55,86,93,69,21,30,60
3583192475,56,93,75,99,21,29,62
3583242475,55,98,72,83,21,29,64
3583292475,45,98,64,78,21,29,66
3583342475,54,114,53,79,20,29,64
3583392475,46,101,78,86,21,29,62
3583442475,44,119,66,77,21,29,62
3583492475,45,109,76,80,22,29,61
3583542475,41,100,78,96,23,29,61
3583592475,43,100,68,86,22,29,61
3583642475,41,117,75,78,21,29,61
3583692475,41,112,68,73,24,30,63
3583742475,40,114,59,82,23,29,62
3583792475,40,123,86,82,21,30,59
3583842475,40,122,88,77,21,29,57
3583892475,40,109,80,92,21,29,57
3583942475,39,99,60,83,20,29,57
3583992475,39,99,68,73,21,29,62
3584042475,39,86,62,76,21,29,63
3584092475,40,127,64,82,20,29,63
3584142475,41,136,66,72,21,30,62
3584192475,41,115,69,75,21,29,62
3584242475,47,137,80,68,21,29,62
3584292475,46,108,60,81,21,29,63
3584342475,48,111,73,79,21,29,67
3584392475,42,105,76,73,20,29,67
3584442475,42,102,74,90,21,29,65
3584492475,40,94,59,78,21,30,64
3584542475,43,135,69,84,21,29,62
3584592475,40,110,63,81,21,29,60
3584642475,40,112,57,74,20,29,61
3584692475,41,108,73,68,20,29,62
3584742475,40,103,80,74,21,29,64
3584792475,40,103,79,69,21,29,65
3584842475,40,111,69,65,21,29,65
3584892475,41,110,67,73,21,29,65
3584942475,41,99,64,73,20,29,64
3584992475,38,97,48,77,21,29,65
3585042475,42,115,71,81,21,30,66
3585092475,40,82,62,72,21,29,70
3585142475,39,140,64,72,20,29,73
3585192475,39,111,68,76,21,29,73
3585242475,40,108,79,85,21,29,73
3585292475,40,123,70,82,21,29,74
3585342475,40,121,48,74,21,29,74
3585392475,40,117,57,91,21,29,73
3585442475,42,118,66,73,21,29,74
3585492475,40,114,76,68,20,29,74
3585542475,41,118,73,70,21,29,74
3585592475,41,132,63,77,21,29,76
3585642475,40,96,68,79,21,30,76
3585692475,42,85,70,85,20,29,77
3585742475,41,115,82,73,21,29,78
3585792475,40,73,62,72,21,29,79
3585842475,40,93,72,78,21,29,80
3585892475,39,87,63,78,21,29,80
3585942475,41,98,83,75,21,29,82
3585992475,40,106,70,71,20,29,83
3586042475,39,97,72,76,21,29,86
3586092475,41,116,51,66,20,29,85
3586142475,43,79,70,73,20,29,86
3586192475,42,103,95,76,21,29,89
3586242475,40,103,70,75,21,29,91
3586292475,44,98,66,75,21,29,94
3586342475,50,101,62,75,21,29,98
3586392475,42,101,69,71,21,29,99
3586442475,42,94,54,76,21,29,102
3586492475,42,85,65,77,21,29,100
3586542475,42,137,62,81,21,29,101
3586592475,41,110,52,75,21,30,102
3586642475,39,122,63,78,21,29,102
3586692475,39,85,71,77,21,29,101
3586742475,39,103,62,82,31,29,100
3586792475,38,85,59,74,26,29,101
3586842475,41,103,80,71,65,29,101
3586892475,40,82,55,74,54,30,101
3586942475,39,106,62,79,44,30,100
3586992475,39,101,93,79,79,29,101
3587042475,40,89,57,72,44,30,98
3587092475,46,121,70,90,33,30,98
3587142475,46,83,67,76,55,30,96
3587192475,85,77,49,87,36,30,94
3587242475,82,65,41,75,99,32,89
3587292475,87,84,55,91,52,30,84
3587342475,80,52,53,70,31,30,86
3587392475,125,60,50,80,28,30,87
3587442475,106,45,49,59,23,29,86
3587492475,116,41,57,74,22,29,85
3587542475,84,39,52,56,21,29,88
3587592475,83,38,49,85,21,29,94
3587642475,61,38,41,60,21,29,107
3587692475,58,37,43,90,21,29,124
3587742475,52,37,35,68,21,29,136
3587792475,46,36,32,66,21,29,141
3587842475,42,36,32,66,21,29,136
3587892475,39,36,30,54,20,29,124
3587942475,44,37,33,66,21,29,92
3587992475,40,36,30,54,21,29,78
3588042475,39,37,29,56,21,29,70
3588092475,38,36,29,60,20,29,60
3588142475,38,36,28,53,20,29,59
3588192475,38,36,29,64,21,29,62
3588242475,38,36,28,52,20,29,64
3588292475,38,36,28,70,21,29,65
3588342475,38,36,29,59,21,29,65
3588392475,38,36,28,74,20,29,65
3588442475,38,36,28,64,21,29,66
3588492475,38,36,28,59,21,29,66
3588542475,38,37,29,65,21,29,65
3588592475,38,36,29,52,21,29,65
3588642475,38,36,29,65,21,29,61
3588692475,38,37,29,52,21,29,67
3588742475,38,36,28,59,21,29,78
3588792475,38,37,28,52,21,29,91
3588842475,38,37,29,61,21,29,107
3588892475,38,37,29,63,21,29,124
3588942475,38,37,29,55,21,29,140
3588992475,38,37,29,57,21,29,151
3589042475,38,37,29,55,21,29,158
3589092475,38,37,29,59,21,29,164
3589142475,38,37,29,54,21,30,170
3589192475,38,41,29,55,21,30,177
3589242475,39,37,29,54,21,29,178
3589292475,38,37,29,55,21,29,181
3589342475,38,44,29,53,21,29,186
3589392475,38,41,29,58,20,30,194
3589442475,38,39,29,55,21,29,198
3589492475,38,39,31,52,21,29,200
3589542475,38,42,38,58,21,29,199
3589592475,38,39,45,52,21,30,199
3589642475,38,37,40,52,21,30,202
3589692475,38,40,43,61,21,30,197
3589742475,38,42,34,55,21,30,186
3589792475,38,46,42,53,21,29,179
3589842475,39,44,42,60,21,29,174
3589892475,38,52,41,53,21,29,177
3589942475,38,54,59,57,21,29,182
3589992475,38,45,50,52,21,29,184
3590042475,38,68,39,54,21,30,188
3590092475,38,50,46,49,21,29,190
3590142475,38,56,53,57,20,29,193
3590192475,38,65,40,52,21,30,208
3590242475,38,52,42,60,21,30,218
3590292475,38,59,34,51,21,30,223
3590342475,38,61,46,52,21,30,221
3590392475,38,68,60,53,21,30,211
3590442475,38,49,39,50,20,30,206
3590492475,38,57,57,55,21,29,212
3590542475,38,47,48,51,21,30,213
3590592475,38,54,46,55,21,30,202
3590642475,38,68,50,51,21,30,196
3590692475,39,51,45,54,21,30,192
3590742475,38,60,43,59,21,29,182
3590792475,39,49,53,51,21,29,169
3590842475,38,64,45,55,21,29,170
3590892475,38,48,47,51,21,29,170
3590942475,38,54,38,52,21,30,165
3590992475,39,46,48,55,21,30,165
3591042475,39,40,37,54,21,30,156
3591092475,38,37,31,54,21,30,136
3591142475,39,36,29,51,21,30,127
3591192475,38,36,29,49,21,29,119
3591242475,38,36,29,51,20,31,92
3591292475,38,36,29,50,20,30,78
3591342475,39,36,29,54,21,30,71
3591392475,38,36,29,51,21,30,62
3591442475,38,36,28,130,21,30,63
3591492475,38,36,29,79,21,30,64
3591542475,38,36,28,93,21,29,66
3591592475,43,36,29,102,21,30,65
3591642475,49,41,34,172,20,30,57
3591692475,42,39,37,97,21,30,53
3591742475,48,41,37,68,21,29,59
3591792475,42,38,31,65,21,31,62
3591842475,39,39,29,60,21,30,64
3591892475,41,42,46,77,21,29,57
3591942475,39,40,34,96,21,30,55
3591992475,39,38,31,88,21,31,53
3592042475,39,42,42,68,21,30,54
3592092475,39,41,33,69,21,30,52
3592142475,38,42,51,55,21,29,55
3592192475,39,44,36,53,21,30,56
3592242475,39,40,35,62,21,30,59
3592292475,39,38,31,54,20,30,59
3592342475,38,37,29,50,21,30,59
3592392475,38,37,29,50,21,30,55
3592442475,42,36,29,77,21,30,57
3592492475,51,36,29,88,21,30,59
3592542475,45,36,29,62,21,30,64
3592592475,69,36,30,51,21,30,74
3592642475,51,36,30,48,21,29,82
3592692475,52,37,29,47,21,30,80
3592742475,44,36,29,47,21,30,72
3592792475,44,36,29,47,20,30,65
3592842475,46,36,29,47,20,30,62
3592892475,47,36,30,51,21,30,64
3592942475,45,36,29,49,21,30,69
3592992475,41,36,29,50,21,30,85
3593042475,41,36,29,52,21,30,101
3593092475,41,36,29,55,20,30,111
3593142475,42,36,28,52,21,30,124
3593192475,43,36,29,55,21,30,135
3593242475,40,36,29,56,21,30,140
3593292475,40,36,30,64,21,30,140
3593342475,39,36,29,68,21,30,136
3593392475,38,36,30,76,20,30,132
3593442475,38,36,29,73,21,30,133
3593492475,38,36,29,85,21,29,133
3593542475,38,36,29,80,21,30,133
3593592475,38,36,29,79,21,31,129
3593642475,38,36,29,87,21,30,125
3593692475,39,36,29,86,20,30,124
3593742475,44,36,29,82,21,30,125
3593792475,68,38,39,74,21,30,123
3593842475,75,39,39,57,21,30,127
3593892475,81,52,48,72,21,30,132
3593942475,79,87,84,105,21,30,126
3593992475,75,88,113,167,20,30,109
3594042475,98,166,146,169,21,30,83
3594092475,186,159,138,271,24,29,88
3594142475,129,148,154,286,25,29,179
3594192475,174,188,245,374,33,30,301
3594242475,127,123,153,529,38,30,426
3594292475,92,116,191,444,35,30,521
3594342475,66,125,130,450,29,29,560
3594392475,82,136,164,494,24,29,540
3594442475,99,73,78,396,22,30,477
3594492475,68,80,73,367,21,29,402
3594542475,100,75,90,273,21,29,324
3594592475,95,54,64,259,21,29,223
3594642475,77,44,92,234,21,30,142
3594692475,68,41,55,171,21,30,179
3594742475,76,42,45,145,21,30,193
3594792475,54,42,36,126,21,30,158
3594842475,48,40,32,92,21,30,164
3594892475,46,38,31,83,21,29,182
3594942475,44,38,30,94,21,30,192
3594992475,40,42,29,78,21,29,198
3595042475,43,41,29,106,21,30,193
3595092475,40,38,29,72,21,30,179
3595142475,40,38,29,64,21,29,157
3595192475,39,38,29,64,21,29,131
3595242475,39,41,29,63,21,29,101
3595292475,38,38,29,59,21,29,95
3595342475,38,37,29,70,21,30,99
3595392475,38,36,29,63,21,30,104
3595442475,38,36,29,53,21,30,107
3595492475,38,37,28,65,21,30,108
3595542475,38,36,28,54,21,30,102
3595592475,41,42,29,75,21,30,92
3595642475,39,37,29,60,21,29,73
3595692475,38,37,29,62,20,30,62
3595742475,38,36,28,60,21,30,64
3595792475,38,36,28,70,21,30,65
3595842475,38,37,29,103,21,30,65
3595892475,38,36,29,125,21,30,64
3595942475,38,36,29,127,21,30,57
3595992475,38,36,28,98,21,30,61
3596042475,38,36,28,74,21,30,63
3596092475,38,36,28,93,21,30,64
3596142475,38,37,28,102,21,30,65
3596192475,38,36,28,82,20,30,65
3596242475,38,37,29,73,21,30,65
3596292475,38,37,29,67,21,30,65
3596342475,38,36,29,57,20,30,65
3596392475,38,36,29,50,21,30,62
3596442475,38,36,28,49,21,30,69
3596492475,38,37,29,47,21,30,71
3596542475,38,36,29,47,21,30,67
3596592475,38,36,28,46,21,30,63
3596642475,38,36,28,46,21,29,66
3596692475,38,36,28,47,21,29,66
3596742475,38,36,28,47,21,30,62
3596792475,38,36,28,47,21,30,57
3596842475,38,36,29,46,21,30,49
3596892475,38,36,28,49,20,30,45
3596942475,38,36,28,48,21,30,54
3596992475,38,36,28,49,20,29,60
3597042475,38,36,28,50,21,29,58
3597092475,38,37,29,49,21,29,55
3597142475,38,36,28,48,21,30,54
3597192475,38,37,29,48,21,30,53
3597242475,38,36,28,49,21,30,50
3597292475,38,36,28,48,21,30,50
3597342475,38,36,28,147,20,31,50
3597392475,39,36,28,93,20,30,50
3597442475,38,36,28,63,21,30,50
3597492475,38,36,29,73,21,30,52
3597542475,38,36,28,60,21,30,49
3597592475,38,36,29,55,21,29,47
3597642475,37,36,28,54,21,30,53
3597692475,38,36,28,52,21,31,60
3597742475,38,36,29,63,21,30,60
3597792475,38,36,30,73,21,30,63
3597842475,38,36,29,66,21,30,64
3597892475,38,36,28,66,21,30,64
3597942475,38,36,28,60,21,30,64
3597992475,38,36,29,61,21,30,62
3598042475,38,37,29,63,21,30,59
3598092475,38,36,29,63,21,30,59
3598142475,38,36,29,70,20,30,56
3598192475,38,36,29,75,21,30,58
3598242475,38,36,29,65,21,31,60
3598292475,39,36,29,72,21,30,58
3598342475,38,36,30,81,21,30,55
3598392475,38,36,29,83,20,30,60
3598442475,39,36,30,80,21,30,59
3598492475,39,36,31,78,21,30,59
3598542475,38,36,30,72,21,31,61
3598592475,38,36,29,78,21,30,57
3598642475,38,36,29,76,21,30,57
3598692475,38,36,28,73,20,30,56
3598742475,38,36,31,70,21,29,56
3598792475,38,36,29,72,21,30,54
3598842475,38,36,29,76,21,31,55
3598892475,38,36,29,92,21,30,53
3598942475,38,36,30,94,21,30,54
3598992475,38,36,29,88,21,30,60
3599042475,38,36,29,85,21,30,61
3599092475,38,36,29,75,21,30,55
3599142475,39,37,29,68,21,30,60
3599192475,38,36,29,77,21,30,61
3599242475,38,36,29,72,21,30,58
3599292475,38,36,29,68,21,30,53
3599342475,38,36,29,63,21,31,53
3599392475,38,36,29,60,21,30,54
3599442475,38,36,29,69,21,30,53
3599492475,38,36,29,69,21,30,53
3599542475,38,36,29,58,21,30,56
3599592475,38,36,30,65,21,30,56
3599642475,38,36,29,59,21,29,61
3599692475,38,36,29,61,21,30,62
3599742475,38,36,29,57,21,30,64
3599792475,38,36,29,56,21,30,62
3599842475,38,36,29,54,21,30,59
3599892475,38,36,29,58,21,30,58
3599942475,38,36,29,55,21,30,57
3599992475,38,36,29,58,21,30,56
3600042475,38,36,29,61,20,30,54
3600092475,39,36,29,61,21,30,53
3600142475,38,37,30,54,21,30,53
3600192475,38,37,29,58,21,30,59
3600242475,38,36,29,60,21,30,58
3600292475,39,36,30,58,22,30,57
3600342475,38,36,29,56,21,31,55
3600392475,38,36,30,56,21,31,55
3600442475,38,36,29,54,22,30,55
3600492475,37,36,30,55,21,31,56
3600542475,38,36,29,56,21,30,53
3600592475,38,36,29,62,21,30,54
3600642475,38,36,29,59,21,30,56
3600692475,38,36,29,55,21,30,60
3600742475,38,36,29,52,21,30,62
3600792475,38,36,29,52,21,29,64
3600842475,38,36,29,54,21,30,64
3600892475,38,36,28,50,20,30,65
3600942475,38,36,28,51,21,30,64
3600992475,38,36,29,52,21,29,64
3601042475,38,36,29,55,21,30,61
3601092475,38,36,29,52,21,29,58
3601142475,38,36,29,52,21,29,61
3601192475,38,36,29,53,21,30,63
3601242475,38,36,29,55,21,31,64
3601292475,38,36,29,53,21,31,64
3601342475,39,36,29,52,21,30,65
3601392475,38,37,30,51,20,30,65
3601442475,38,36,29,53,21,30,65
3601492475,38,36,29,60,20,30,65
3601542475,38,37,31,60,21,30,65
3601592475,38,36,30,54,21,30,66
3601642475,38,36,29,55,20,30,65
3601692475,37,36,28,53,21,30,66
3601742475,38,36,29,55,21,30,80
3601792475,38,36,29,53,21,29,108
3601842475,37,37,30,64,21,30,119
3601892475,38,36,29,61,21,30,103
3601942475,38,36,29,57,21,30,81
3601992475,38,36,29,58,21,30,73
3602042475,38,36,29,59,21,29,69
3602092475,38,36,29,60,21,29,67
3602142475,38,36,29,57,21,29,66
3602192475,38,36,29,59,21,30,65
3602242475,38,36,29,53,21,30,61
3602292475,38,36,29,52,21,30,62
3602342475,38,36,28,52,21,30,63
3602392475,38,36,29,52,21,29,64
3602442475,38,36,29,52,21,30,68
3602492475,38,36,28,50,21,29,67
3602542475,38,36,29,53,21,30,68
3602592475,38,36,29,52,21,30,65
3602642475,38,36,29,51,21,30,64
3602692475,38,36,29,55,21,30,62
3602742475,38,36,29,52,21,30,64
3602792475,38,36,29,54,21,30,61
3602842475,38,36,29,51,21,30,63
3602892475,38,36,29,52,21,30,63
3602942475,38,36,29,56,21,30,59
3602992475,43,36,29,56,21,30,61
3603042475,101,41,40,52,21,30,57
3603092475,139,44,54,48,21,30,57
3603142475,177,68,68,68,21,30,63
3603192475,161,59,104,88,21,29,62
3603242475,116,73,145,124,20,29,57
3603292475,110,75,116,128,21,29,60
3603342475,129,88,146,163,21,29,64
3603392475,112,125,144,209,21,29,112
3603442475,132,156,203,256,21,30,224
3603492475,121,185,126,287,21,30,352
3603542475,151,185,207,344,21,30,461
3603592475,110,135,115,295,21,30,552
3603642475,88,165,206,336,21,30,594
3603692475,91,152,177,325,21,30,619
3603742475,68,115,120,286,21,30,631
3603792475,67,106,173,308,20,30,652
3603842475,79,62,89,284,21,30,652
3603892475,132,51,115,264,21,30,653
3603942475,143,48,119,221,21,30,611
3603992475,89,42,64,124,21,29,476
3604042475,70,40,65,132,21,30,274
3604092475,62,40,41,94,21,30,203
3604142475,48,41,35,96,21,30,194
3604192475,44,38,31,81,21,30,170
3604242475,40,39,29,95,21,29,117
3604292475,39,37,29,68,21,30,90
3604342475,38,37,29,69,21,30,76
3604392475,38,37,29,71,21,30,77
3604442475,38,38,29,68,21,30,95
3604492475,38,40,29,65,21,30,94
3604542475,38,40,45,66,20,29,82
3604592475,38,40,34,71,21,30,69
3604642475,39,39,32,64,21,30,67
3604692475,38,37,30,65,21,29,66
3604742475,39,37,30,57,21,30,65
3604792475,38,36,28,69,21,30,62
3604842475,39,36,28,62,21,30,72
3604892475,38,36,29,55,21,30,82
3604942475,38,37,29,70,21,30,92
3604992475,38,36,29,55,21,30,100
3605042475,38,39,29,82,20,30,105
3605092475,39,40,29,61,21,30,112
3605142475,39,40,43,66,21,30,120
3605192475,38,41,42,59,21,29,125
3605242475,38,39,33,56,21,30,128
3605292475,38,45,44,62,21,30,138
3605342475,38,49,38,61,21,29,150
3605392475,38,64,58,61,21,30,153
3605442475,39,55,38,59,21,30,148
3605492475,38,44,39,61,20,30,154
3605542475,38,39,32,60,21,30,160
3605592475,39,37,30,52,21,30,163
3605642475,38,36,29,50,21,30,162
3605692475,38,36,29,50,21,30,157
3605742475,38,36,29,92,21,30,150
3605792475,38,36,28,90,20,30,149
3605842475,38,37,28,76,21,30,160
3605892475,38,36,28,80,21,30,166
3605942475,38,38,28,84,21,30,160
3605992475,38,37,28,58,21,30,141
3606042475,38,37,28,58,21,30,132
3606092475,38,37,28,69,20,30,133
3606142475,38,37,29,60,21,30,135
3606192475,38,36,28,50,20,30,129
3606242475,38,36,28,48,21,30,116
3606292475,38,36,28,71,21,29,108
3606342475,38,36,28,59,20,30,101
3606392475,38,36,28,87,20,29,97
3606442475,38,36,28,120,21,29,95
3606492475,38,36,28,89,21,30,91
3606542475,38,36,29,93,21,29,88
3606592475,38,36,28,81,20,29,90
3606642475,38,36,28,60,20,30,96
3606692475,38,36,29,65,21,29,105
3606742475,38,36,28,54,21,30,101
3606792475,38,36,29,55,21,30,111
3606842475,39,36,29,62,21,29,178
3606892475,45,36,29,74,21,30,215
3606942475,45,36,29,78,21,30,224
3606992475,44,37,32,104,21,30,201
3607042475,42,37,32,101,21,30,166
3607092475,39,37,29,66,21,29,123
3607142475,39,37,29,54,21,30,94
3607192475,38,36,29,48,21,30,77
3607242475,38,36,28,47,21,30,78
3607292475,38,36,28,46,20,29,82
3607342475,38,36,28,45,21,30,84
3607392475,38,36,29,46,21,29,100
3607442475,38,36,28,45,20,30,119
3607492475,38,36,28,45,21,29,116
3607542475,38,36,28,46,21,29,110
3607592475,38,36,28,46,21,29,109
3607642475,38,36,28,46,20,29,102
3607692475,38,36,27,46,21,29,94
3607742475,38,36,28,46,21,29,87
3607792475,38,36,29,45,20,30,83
3607842475,38,36,28,46,20,29,77
3607892475,38,36,28,45,21,30,71
3607942475,38,36,28,45,21,30,68
3607992475,38,36,28,45,21,29,62
3608042475,38,36,28,45,21,29,57
3608092475,38,36,28,45,20,29,51
3608142475,39,36,28,45,21,30,58
3608192475,38,36,28,45,21,29,61
3608242475,38,36,28,45,21,30,64
3608292475,38,36,28,45,21,30,64
3608342475,38,36,28,46,21,29,65
3608392475,38,36,29,45,21,29,65
3608442475,38,36,28,45,21,30,65
3608492475,38,36,28,45,21,30,65
3608542475,38,36,28,45,21,30,65
3608592475,38,36,28,46,21,30,65
3608642475,38,36,28,46,20,29,65
3608692475,38,36,29,46,21,29,65
3608742475,38,36,29,45,21,29,65
3608792475,38,36,28,45,21,29,65
3608842475,38,36,28,44,21,29,65
3608892475,38,36,28,45,21,29,65
3608942475,38,36,28,45,20,29,65
3608992475,38,36,28,45,21,29,65
3609042475,38,36,28,45,21,29,65
3609092475,38,36,28,45,21,29,65
3609142475,38,36,28,45,21,29,65
3609192475,38,36,28,45,20,30,65
3609242475,38,36,28,45,20,29,65
3609292475,38,36,28,45,21,30,65
3609342475,38,36,28,45,21,29,65
3609392475,38,36,27,45,21,29,65
3609442475,38,36,29,46,21,29,65
3609492475,38,36,29,45,21,29,65
3609542475,38,36,29,45,21,30,65
3609592475,38,36,28,45,21,30,65
3609642475,38,36,28,46,21,30,65
3609692475,38,36,28,46,21,29,65
3609742475,38,36,28,45,21,29,65
3609792475,38,36,28,45,21,29,65
3609842475,38,36,28,45,21,29,65
3609892475,38,36,28,46,21,28,65
3609942475,38,36,28,45,20,29,66
3609992475,38,36,28,45,21,29,65
3610042475,38,36,28,45,21,29,65
3610092475,38,35,28,45,21,30,65
3610142475,39,36,28,45,21,29,66
3610192475,38,36,29,45,21,29,65
3610242475,38,36,28,45,21,29,65
3610292475,38,36,28,45,20,30,65
3610342475,38,36,28,45,21,29,65
3610392475,38,36,29,45,21,29,65
3610442475,39,36,28,45,21,30,65
3610492475,38,36,28,45,21,29,65
3610542475,38,36,28,45,21,29,65
3610592475,38,36,28,45,21,29,65
3610642475,38,36,28,45,21,29,65
3610692475,38,36,28,45,21,30,65
3610742475,38,36,29,45,21,30,65
3610792475,38,36,28,45,20,30,65
3610842475,39,36,28,45,21,29,64
3610892475,38,36,28,45,21,29,65
3610942475,38,36,28,45,21,30,65
3610992475,38,36,28,45,21,30,65
3611042475,38,36,28,45,20,30,65
3611092475,38,36,28,45,20,30,65
3611142475,38,35,28,45,21,30,65
3611192475,38,36,28,45,20,29,65
3611242475,38,36,28,46,21,30,65
3611292475,38,36,28,45,21,29,65
3611342475,38,36,29,45,20,30,65
3611392475,38,36,28,46,21,31,65
3611442475,38,36,28,45,21,30,65
3611492475,38,36,29,46,20,30,65
3611542475,40,36,29,50,21,30,65
3611592475,44,38,36,56,22,30,65
3611642475,80,38,37,57,21,31,65
3611692475,138,40,41,56,21,31,65
3611742475,116,38,48,53,23,31,65
3611792475,117,38,49,61,22,31,65
3611842475,165,44,66,68,23,31,71
3611892475,278,54,113,83,25,32,117
3611942475,376,55,133,70,24,33,176
3611992475,443,54,137,66,24,32,199
3612042475,382,58,143,56,23,33,193
3612092475,302,58,121,53,23,31,145
3612142475,278,68,120,70,24,30,101
3612192475,216,63,150,70,21,30,113
3612242475,207,82,127,119,21,30,107
3612292475,201,94,123,115,21,30,77
3612342475,219,74,109,115,21,30,68
3612392475,194,74,103,114,21,29,89
3612442475,202,102,86,161,22,29,163
3612492475,145,82,108,140,21,30,242
3612542475,273,71,131,162,21,30,306
3612592475,298,74,126,162,21,29,358
3612642475,224,75,136,135,22,31,400
3612692475,194,108,130,126,22,33,424
3612742475,224,97,113,130,22,33,451
3612792475,173,110,105,117,22,31,492
3612842475,140,111,143,135,21,31,526
3612892475,142,97,92,108,21,30,534
3612942475,122,86,80,101,21,30,529
3612992475,103,91,110,101,20,30,512
3613042475,89,148,77,84,21,30,497
3613092475,120,110,94,89,21,30,490
3613142475,85,95,64,85,21,30,484
3613192475,90,109,125,82,21,30,485
3613242475,103,99,91,78,21,30,486
3613292475,100,91,113,83,21,30,496
3613342475,109,133,84,74,21,29,509
3613392475,122,123,69,84,21,30,526
3613442475,94,118,104,76,21,30,535
3613492475,87,100,62,76,21,30,541
3613542475,113,98,69,71,21,30,545
3613592475,102,81,77,72,20,30,543
3613642475,77,138,87,76,21,30,537
3613692475,80,77,69,71,21,29,527
3613742475,70,118,73,70,21,29,522
3613792475,81,128,107,81,21,29,513
3613842475,84,112,78,77,21,29,497
3613892475,84,80,52,69,21,30,481
3613942475,57,95,64,71,21,29,462
3613992475,66,84,54,69,21,30,444
3614042475,51,85,59,74,20,29,427
3614092475,102,100,84,85,21,30,410
3614142475,75,114,74,79,20,30,393
3614192475,98,85,76,81,21,30,372
3614242475,91,86,68,75,20,30,351
3614292475,90,84,69,80,20,29,328
3614342475,73,91,69,74,21,30,308
3614392475,57,94,56,87,21,30,290
3614442475,46,101,76,80,21,30,274
3614492475,58,88,47,85,21,30,258
3614542475,45,94,67,82,21,29,238
3614592475,46,109,75,79,21,30,222
3614642475,42,103,62,83,21,30,206
3614692475,41,91,62,81,20,29,189
3614742475,40,104,61,80,20,29,173
3614792475,39,85,54,77,20,30,160
3614842475,40,83,47,87,21,30,148
3614892475,41,98,57,76,21,30,135
3614942475,41,104,68,78,21,29,124
3614992475,41,92,59,70,21,30,114
3615042475,39,92,68,72,21,29,102
3615092475,40,109,45,73,21,29,92
3615142475,41,109,57,77,21,30,86
3615192475,40,104,73,82,21,29,78
3615242475,40,133,73,71,21,30,71
3615292475,41,104,64,73,21,29,65
3615342475,41,101,64,67,20,29,58
3615392475,42,97,63,70,21,30,54
3615442475,43,122,76,77,21,29,51
3615492475,40,98,54,77,21,29,59
3615542475,41,102,71,73,21,30,63
3615592475,39,87,67,71,20,30,64
3615642475,39,112,90,82,21,30,66
3615692475,39,92,60,72,21,30,66
3615742475,40,89,57,84,21,29,66
3615792475,40,88,60,75,21,29,66
3615842475,39,119,63,85,20,29,66
3615892475,39,97,54,75,21,30,66
3615942475,40,123,71,76,21,30,66
3615992475,39,110,57,82,20,29,66
3616042475,42,97,76,75,20,30,66
3616092475,41,85,64,82,21,30,66
3616142475,40,84,65,75,21,30,65
3616192475,40,99,60,84,20,29,65
3616242475,40,120,65,79,21,30,66
3616292475,40,81,57,76,21,29,65
3616342475,40,123,85,73,20,29,65
3616392475,40,92,72,70,20,29,65
3616442475,40,135,80,67,21,29,65
3616492475,41,90,91,81,21,30,65
3616542475,40,89,54,87,21,29,65
3616592475,40,102,60,83,21,29,65
3616642475,41,121,76,74,21,29,65
3616692475,40,110,75,73,21,30,65
3616742475,39,78,69,73,21,30,65
3616792475,39,102,51,74,21,29,65
3616842475,39,120,54,80,21,30,65
3616892475,39,110,69,82,21,29,64
3616942475,39,91,60,78,21,30,65
3616992475,40,84,59,70,21,29,65
3617042475,40,97,64,77,20,30,65
3617092475,39,90,63,73,21,29,65
3617142475,40,104,101,78,20,30,65
3617192475,40,80,79,66,21,30,65
3617242475,40,137,78,72,20,30,65
3617292475,40,122,80,71,21,30,65
3617342475,39,98,68,84,22,30,65
3617392475,39,104,101,81,20,30,65
3617442475,38,96,64,78,21,30,65
3617492475,39,136,64,73,21,30,65
3617542475,40,92,59,70,21,30,65
3617592475,40,113,77,77,21,30,65
3617642475,43,99,70,74,21,31,65
3617692475,42,93,58,80,20,30,65
3617742475,40,114,71,73,20,30,65
3617792475,40,83,61,66,21,30,65
3617842475,40,127,63,76,21,30,65
3617892475,41,95,51,75,21,30,65
3617942475,42,130,73,79,21,29,65
3617992475,54,118,64,77,21,30,65
3618042475,51,93,71,74,20,30,65
3618092475,50,110,67,71,21,29,65
3618142475,57,108,63,70,21,30,65
3618192475,51,124,58,71,21,29,65
3618242475,63,93,72,71,21,30,65
3618292475,67,92,54,75,21,29,65
3618342475,68,69,73,78,22,30,65
3618392475,57,74,63,74,21,30,65
3618442475,80,115,71,67,21,29,65
3618492475,66,111,77,69,21,30,65
3618542475,52,90,86,68,21,29,65
3618592475,66,94,74,76,21,30,65
3618642475,66,100,67,71,21,30,65
3618692475,61,83,58,71,21,29,65
3618742475,66,112,61,73,21,30,65
3618792475,77,98,77,70,21,29,65
3618842475,74,128,69,67,21,30,65
3618892475,53,119,67,67,21,30,65
3618942475,48,121,57,71,21,29,65
3618992475,46,121,60,69,21,30,65
3619042475,42,130,74,71,20,30,65
3619092475,41,113,69,73,21,29,65
3619142475,40,104,59,77,21,29,65
3619192475,44,88,54,67,21,30,65
3619242475,40,84,65,76,21,30,65
3619292475,39,97,57,79,21,30,66
3619342475,39,83,66,68,21,30,65
3619392475,39,61,44,66,21,30,65
3619442475,42,108,53,68,21,30,65
3619492475,42,88,61,72,21,30,65
3619542475,40,111,81,76,21,30,65
3619592475,49,141,64,82,20,30,65
3619642475,93,111,93,95,21,30,65
3619692475,124,122,80,105,21,30,65
3619742475,145,123,82,82,21,30,65
3619792475,140,104,78,85,20,30,65
3619842475,114,90,69,80,21,30,65
3619892475,116,107,56,74,21,30,65
3619942475,66,77,46,116,20,30,65
3619992475,77,94,59,87,21,30,65
3620042475,92,101,93,82,21,30,65
3620092475,90,97,61,88,21,29,65
3620142475,73,137,69,88,21,30,65
3620192475,52,79,64,82,21,29,65
3620242475,43,67,41,83,21,29,65
3620292475,40,82,64,85,21,29,65
3620342475,41,90,59,82,21,30,65
3620392475,40,86,67,70,21,30,65
3620442475,40,84,58,75,20,30,65
3620492475,39,95,86,86,21,30,60
3620542475,39,110,54,77,21,30,52
3620592475,39,90,58,69,21,29,49
3620642475,39,88,55,72,21,30,49
3620692475,38,91,62,75,20,30,49
3620742475,39,93,48,76,21,30,49
3620792475,39,98,64,72,21,30,49
3620842475,40,121,78,81,21,30,49
3620892475,40,106,54,72,21,30,50
3620942475,40,97,60,77,20,30,50
3620992475,40,97,62,67,21,30,52
3621042475,40,94,75,73,21,30,52
3621092475,39,87,68,72,21,30,54
3621142475,38,90,59,80,21,30,55
3621192475,38,78,79,73,21,30,55
3621242475,39,100,75,78,21,30,56
3621292475,39,90,61,80,21,30,56
3621342475,42,111,82,81,21,30,56
3621392475,40,122,61,84,21,29,56
3621442475,39,92,71,74,21,30,56
3621492475,40,108,65,72,20,30,57
3621542475,38,89,71,85,21,30,57
3621592475,39,110,77,75,21,30,58
3621642475,38,103,61,77,21,30,58
3621692475,39,91,61,69,21,30,59
3621742475,39,95,73,77,21,30,59
3621792475,39,116,66,77,20,30,60
3621842475,39,114,74,72,21,30,60
3621892475,39,84,62,86,21,30,60
3621942475,39,84,56,78,21,30,59
3621992475,40,104,70,86,21,30,59
3622042475,40,91,63,74,21,29,61
3622092475,39,99,88,75,21,30,60
3622142475,38,100,77,70,21,30,60
3622192475,40,100,74,68,20,30,60
3622242475,40,126,63,73,20,30,61
3622292475,39,108,79,73,20,30,62
3622342475,39,93,67,70,21,30,63
3622392475,40,111,73,73,21,30,63
3622442475,40,88,67,74,21,30,64
3622492475,39,82,62,83,20,30,64
3622542475,40,133,81,75,21,29,64
3622592475,39,92,69,76,21,30,62
3622642475,39,126,52,79,21,30,63
3622692475,39,99,69,79,20,29,64
3622742475,40,86,75,79,21,30,64
3622792475,41,80,66,72,21,30,63
3622842475,40,90,61,72,21,29,62
3622892475,40,118,70,70,21,30,62
3622942475,41,94,77,79,21,30,64
3622992475,39,69,67,67,21,29,63
3623042475,39,83,66,73,20,30,62
3623092475,39,111,84,72,21,29,62
3623142475,39,92,71,80,21,30,63
3623192475,39,86,65,81,21,30,64
3623242475,39,83,71,75,20,30,66
3623292475,38,77,76,69,21,30,66
3623342475,40,111,82,70,20,30,67
3623392475,38,105,71,84,21,29,67
3623442475,39,105,75,74,21,30,65
3623492475,40,104,74,83,21,30,64
3623542475,39,88,79,73,21,30,62
3623592475,39,86,69,83,21,30,61
3623642475,39,73,65,74,21,30,60
3623692475,39,110,100,80,21,29,60
3623742475,38,79,60,75,21,30,61
3623792475,39,105,71,80,20,30,62
3623842475,44,91,55,80,21,29,64
3623892475,42,104,59,77,20,30,64
3623942475,41,81,68,74,21,29,66
3623992475,40,92,61,82,21,29,66
3624042475,39,76,73,83,21,30,65
3624092475,42,100,62,77,21,29,65
3624142475,39,95,72,71,21,30,64
3624192475,40,77,66,77,21,30,66
3624242475,38,57,50,74,20,30,66
3624292475,41,115,61,83,21,29,67
3624342475,40,110,72,84,21,30,67
3624392475,39,148,80,83,21,30,67
3624442475,39,104,61,77,21,30,66
3624492475,39,108,56,73,21,29,65
3624542475,40,89,69,72,21,30,65
3624592475,39,90,66,72,21,30,65
3624642475,40,118,52,88,20,29,65
3624692475,39,92,55,79,21,30,66
3624742475,39,96,62,67,21,29,65
3624792475,39,88,68,71,21,30,66
3624842475,39,106,66,66,21,30,66
3624892475,39,81,72,78,21,29,65
3624942475,39,72,67,79,21,29,65
3624992475,39,81,55,71,21,30,67
3625042475,39,105,69,74,21,30,68
3625092475,39,124,90,73,21,30,67
3625142475,39,152,97,70,20,29,67
3625192475,39,97,63,71,21,29,68
3625242475,39,122,71,73,21,29,68
3625292475,39,97,71,77,20,30,69
3625342475,41,113,91,77,21,30,68
3625392475,39,93,75,75,21,28,68
3625442475,40,108,62,84,21,30,68
3625492475,39,96,68,72,21,29,67
3625542475,39,121,92,77,21,30,68
3625592475,38,76,58,76,20,30,69
3625642475,39,118,59,74,21,30,69
3625692475,39,104,102,72,20,29,68
3625742475,39,143,71,73,21,29,68
3625792475,41,93,66,78,20,29,67
3625842475,39,95,73,76,21,30,67
3625892475,39,85,62,72,20,30,67
3625942475,40,96,62,70,21,30,68
3625992475,39,79,65,68,21,29,68
3626042475,40,89,79,70,20,29,68
3626092475,39,91,84,70,21,29,68
3626142475,39,113,65,67,21,29,66
3626192475,39,78,77,68,21,30,66
3626242475,39,96,79,75,21,29,66
3626292475,39,102,53,69,21,29,66
3626342475,39,109,64,75,21,29,65
3626392475,38,85,114,66,21,29,65
3626442475,38,78,88,89,21,29,64
3626492475,40,88,88,75,21,30,64
3626542475,38,108,61,75,21,29,64
3626592475,40,79,59,70,20,29,64
3626642475,40,88,90,74,21,29,63
3626692475,39,90,62,65,21,29,62
3626742475,40,80,71,69,21,29,61
3626792475,39,86,76,84,21,29,62
3626842475,39,89,115,130,21,30,63
3626892475,39,104,72,108,21,29,61
3626942475,41,100,87,90,21,29,61
3626992475,39,90,89,86,21,29,60
3627042475,39,98,63,88,21,29,60
3627092475,38,87,72,86,21,30,58
3627142475,41,91,104,88,21,29,58
3627192475,41,106,105,80,20,29,59
3627242475,39,100,66,75,21,30,59
3627292475,40,85,78,80,20,30,58
3627342475,39,82,92,65,21,29,58
3627392475,38,90,79,77,21,29,58
3627442475,39,103,75,76,20,29,58
3627492475,39,95,72,87,21,30,58
3627542475,38,93,79,72,20,29,58
3627592475,39,108,74,87,21,29,55
3627642475,39,103,82,67,21,30,56
3627692475,39,87,77,76,20,29,56
3627742475,39,88,76,77,21,29,57
3627792475,39,108,79,75,21,29,58
3627842475,40,105,86,78,21,29,58
3627892475,39,98,89,79,21,29,59
3627942475,38,100,64,78,20,29,57
3627992475,40,98,86,71,21,29,56
3628042475,40,87,88,75,21,29,55
3628092475,45,140,66,69,20,29,54
3628142475,40,112,74,65,21,29,51
3628192475,43,139,103,70,21,29,49
3628242475,41,90,85,83,21,30,47
3628292475,40,87,73,74,20,29,47
3628342475,39,96,72,65,21,30,46
3628392475,39,114,70,74,21,30,53
3628442475,41,91,82,78,23,29,58
3628492475,41,120,72,76,22,29,62
3628542475,40,118,73,74,22,30,63
3628592475,39,103,84,72,21,29,64
3628642475,40,94,75,65,28,30,64
3628692475,43,105,83,80,37,29,65
3628742475,40,133,56,77,58,30,65
3628792475,39,83,65,87,82,32,65
3628842475,41,127,66,71,47,30,64
3628892475,40,113,55,82,41,30,65
3628942475,41,110,75,74,33,29,66
3628992475,40,100,67,84,31,30,65
3629042475,39,99,69,74,31,30,65
3629092475,40,111,64,74,29,30,64
3629142475,39,94,53,74,35,29,65
3629192475,40,132,68,75,45,30,65
3629242475,39,105,89,69,63,29,65
3629292475,41,81,76,78,43,30,65
3629342475,41,98,90,75,32,30,65
3629392475,40,110,80,74,56,30,65
3629442475,39,100,80,73,35,30,65
3629492475,39,108,56,74,43,30,65
3629542475,39,109,64,77,40,29,65
3629592475,38,73,48,78,41,30,65
3629642475,39,101,48,77,57,30,65
3629692475,39,104,65,77,73,30,65
3629742475,38,69,57,79,59,30,65
3629792475,38,83,53,79,49,30,65
3629842475,46,69,61,74,43,30,65
3629892475,88,47,42,82,28,30,65
3629942475,113,45,48,80,23,30,65
3629992475,95,40,45,84,21,30,65
3630042475,106,42,45,66,21,29,63
3630092475,87,39,38,74,21,29,68
3630142475,69,38,37,66,21,29,82
3630192475,56,37,39,79,21,30,97
3630242475,59,37,33,58,20,30,104
3630292475,57,36,31,85,21,30,103
3630342475,44,36,29,59,21,30,108
3630392475,48,36,29,68,20,29,113
3630442475,41,37,29,67,21,29,126
3630492475,39,37,29,55,21,30,132
3630542475,38,37,29,69,21,30,142
3630592475,38,36,28,58,21,29,158
3630642475,43,41,31,64,21,29,175
3630692475,40,46,30,64,20,29,185
3630742475,39,46,44,66,21,29,195
3630792475,38,39,33,58,21,30,205
3630842475,38,37,30,68,21,30,216
3630892475,39,36,32,61,21,29,222
3630942475,38,36,32,56,21,30,226
3630992475,38,36,30,75,22,30,229
3631042475,38,36,29,57,21,30,230
3631092475,38,36,29,64,21,29,232
3631142475,38,36,29,56,21,30,237
3631192475,39,60,49,67,21,30,240
3631242475,45,59,41,61,22,30,231
3631292475,41,44,32,50,22,30,225
3631342475,39,38,30,57,22,30,226
3631392475,38,37,29,74,21,30,232
3631442475,38,36,29,70,24,30,234
3631492475,38,36,28,55,22,30,234
3631542475,38,36,29,70,22,30,229
3631592475,38,36,29,66,22,30,221
3631642475,38,36,28,52,22,30,205
3631692475,38,36,29,58,21,30,184
3631742475,38,36,28,49,21,30,162
3631792475,38,36,29,60,21,30,139
3631842475,38,36,29,61,21,30,105
3631892475,38,36,29,54,21,30,80
3631942475,38,37,30,56,21,30,70
3631992475,38,36,29,51,21,30,67
3632042475,38,36,29,76,21,30,66
3632092475,38,36,29,59,20,29,65
3632142475,38,46,43,58,21,29,65
3632192475,38,45,37,52,21,30,66
3632242475,38,40,31,58,21,30,65
3632292475,38,37,29,51,21,30,65
3632342475,38,37,29,62,21,30,65
3632392475,38,36,29,51,21,30,64
3632442475,38,36,29,60,21,30,65
3632492475,38,37,29,54,21,30,62
3632542475,38,37,38,55,21,30,59
3632592475,38,40,36,55,21,30,55
3632642475,38,38,31,49,21,30,59
3632692475,38,37,29,60,21,29,62
3632742475,44,36,29,54,22,30,61
3632792475,40,36,29,51,21,30,55
3632842475,40,39,50,53,21,30,56
3632892475,38,37,36,48,21,30,58
3632942475,38,36,30,51,21,30,57
3632992475,38,36,29,50,21,29,56
3633042475,38,37,32,54,21,29,52
3633092475,39,37,41,58,21,30,53
3633142475,38,51,40,57,21,29,56
3633192475,38,76,59,55,21,29,54
3633242475,38,50,43,50,21,29,58
3633292475,38,44,53,62,21,30,55
3633342475,39,54,44,51,21,29,53
3633392475,38,49,34,52,22,30,52
3633442475,38,41,31,55,21,30,52
3633492475,44,48,61,51,21,30,55
3633542475,40,42,47,58,21,29,59
3633592475,44,65,47,56,21,30,59
3633642475,42,78,59,60,21,30,57
3633692475,46,112,115,64,21,30,60
3633742475,55,155,217,87,100,33,73
3633792475,87,140,157,95,90,33,92
3633842475,84,140,204,169,99,32,129
3633892475,161,152,175,255,158,44,118
3633942475,88,131,164,431,79,35,95
3633992475,86,165,170,394,124,35,144
3634042475,65,148,242,448,108,33,212
3634092475,52,138,146,348,144,34,265
3634142475,52,208,159,356,62,31,284
3634192475,73,107,93,340,34,30,288
3634242475,77,64,61,234,26,30,267
3634292475,105,49,125,185,23,30,206
3634342475,63,41,60,118,22,30,139
3634392475,55,38,40,116,21,30,166
3634442475,44,37,32,109,21,30,202
3634492475,40,37,30,82,21,29,214
3634542475,41,37,30,86,21,29,198
3634592475,40,36,29,71,21,29,133
3634642475,39,36,29,69,21,30,97
3634692475,38,36,28,58,20,30,74
3634742475,38,36,29,75,21,30,64
3634792475,38,36,29,58,21,30,65
3634842475,38,36,29,61,21,29,65
3634892475,38,36,29,56,21,29,65
3634942475,38,36,28,64,21,30,65
3634992475,38,36,28,57,21,30,65
3635042475,38,36,29,55,20,30,65
3635092475,38,36,29,62,21,29,65
3635142475,38,36,28,54,21,29,65
3635192475,39,36,28,75,21,30,65
3635242475,38,36,28,55,21,30,65
3635292475,38,36,28,51,21,29,65
3635342475,38,36,28,56,21,30,65
3635392475,38,36,29,61,21,29,65
3635442475,38,36,28,53,21,29,65
3635492475,38,36,28,56,21,29,65
3635542475,38,36,29,63,21,29,65
3635592475,38,36,28,59,21,29,65
3635642475,38,36,29,54,21,29,65
3635692475,38,37,29,62,21,29,65
3635742475,38,37,29,51,21,30,65
3635792475,38,37,29,57,20,29,65
3635842475,38,37,29,59,21,29,59
3635892475,39,37,44,53,21,29,55
3635942475,38,37,33,56,21,30,52
3635992475,38,38,41,53,21,30,52
3636042475,38,37,46,51,21,29,57
3636092475,38,37,41,58,21,29,60
3636142475,38,37,47,55,21,30,62
3636192475,38,37,40,53,21,29,59
3636242475,39,38,33,50,21,29,52
3636292475,38,62,39,57,21,29,60
3636342475,38,45,38,55,20,29,66
3636392475,38,59,43,52,21,30,66
3636442475,39,46,34,53,21,29,64
3636492475,38,58,44,58,21,30,68
3636542475,38,46,33,54,21,30,78
3636592475,38,43,31,56,20,30,79
3636642475,38,39,29,53,21,30,78
3636692475,38,37,29,53,20,29,83
3636742475,38,37,29,48,21,30,77
3636792475,38,37,29,58,20,30,64
3636842475,38,36,29,81,21,30,64
3636892475,38,36,29,76,21,29,61
3636942475,38,36,28,56,20,30,69
3636992475,38,36,28,50,21,30,77
3637042475,38,36,28,47,21,30,77
3637092475,38,36,28,46,21,29,84
3637142475,38,36,29,46,21,30,95
3637192475,38,36,28,46,20,31,103
3637242475,38,36,28,46,21,30,105
3637292475,38,36,28,46,21,30,108
3637342475,38,36,29,45,21,29,108
3637392475,38,36,28,46,21,30,97
3637442475,38,36,28,47,20,30,95
3637492475,38,36,28,46,20,29,93
3637542475,38,36,29,47,21,30,89
3637592475,38,36,28,48,22,30,90
3637642475,38,36,28,47,21,30,84
3637692475,38,36,29,51,21,30,77
3637742475,38,36,28,48,20,30,79
3637792475,38,36,28,47,21,30,77
3637842475,38,36,29,47,21,30,65
3637892475,38,36,29,47,21,30,65
3637942475,38,36,28,54,21,30,92
3637992475,38,36,28,54,21,30,111
3638042475,39,36,29,53,21,30,130
3638092475,41,36,30,57,20,30,124
3638142475,40,36,29,82,20,30,126
3638192475,39,36,30,90,21,30,138
3638242475,38,36,29,81,21,30,137
3638292475,38,36,29,105,21,30,126
3638342475,38,36,29,101,21,30,108
3638392475,39,36,29,71,21,30,88
3638442475,38,36,29,54,21,30,80
3638492475,38,36,29,50,21,30,74
3638542475,38,36,28,47,21,30,62
3638592475,38,36,28,49,21,30,63
3638642475,38,36,28,47,21,30,65
3638692475,38,36,28,47,21,30,65
3638742475,38,36,29,46,21,30,65
3638792475,38,36,28,48,21,30,65
3638842475,38,36,28,47,21,29,65
3638892475,38,36,28,46,21,30,65
3638942475,38,36,28,46,21,30,65
3638992475,38,36,28,48,21,30,65
3639042475,39,36,29,58,21,30,65
3639092475,38,36,28,86,21,30,65
3639142475,38,36,28,84,21,30,65
3639192475,38,36,28,68,20,30,65
3639242475,38,36,28,53,20,30,65
3639292475,38,36,28,49,20,30,65
3639342475,38,36,28,47,21,30,65
3639392475,38,36,28,46,21,30,64
3639442475,38,36,29,45,21,30,65
3639492475,38,36,29,46,21,29,65
3639542475,38,36,29,46,21,30,65
3639592475,38,36,28,46,20,30,65
3639642475,38,36,28,46,21,29,65
3639692475,38,36,28,48,20,30,65
3639742475,38,36,29,46,21,30,65
3639792475,38,36,28,47,21,30,65
3639842475,38,36,28,46,21,30,65
3639892475,38,36,28,46,21,29,65
3639942475,38,36,29,46,21,29,65
3639992475,38,36,28,47,21,29,64
3640042475,38,36,28,46,21,30,65
3640092475,38,36,28,46,21,30,65
3640142475,38,36,29,46,21,30,65
3640192475,38,36,29,45,21,30,64
3640242475,38,36,28,45,20,30,64
3640292475,38,36,29,46,21,30,65
3640342475,38,36,28,46,21,31,65
3640392475,38,36,28,46,21,29,65
3640442475,38,36,28,45,20,30,65
3640492475,38,36,29,46,21,30,64
3640542475,38,36,28,45,21,30,65
3640592475,39,36,29,46,21,30,65
3640642475,38,36,28,45,21,30,64
3640692475,38,36,28,46,21,29,65
3640742475,38,36,28,46,21,30,65
3640792475,38,36,28,46,21,29,65
3640842475,38,36,29,46,21,30,65
3640892475,38,36,28,46,21,30,65
3640942475,38,36,28,46,21,30,65
3640992475,38,36,28,45,21,29,59
3641042475,38,36,28,46,21,29,58
3641092475,38,36,28,46,20,30,58
3641142475,38,36,29,45,21,30,60
3641192475,38,36,28,45,20,30,62
3641242475,38,36,28,45,21,30,56
3641292475,38,36,29,46,20,30,54
3641342475,38,36,29,46,21,29,60
3641392475,38,36,28,46,21,30,58
3641442475,38,36,28,46,20,30,62
3641492475,38,36,28,46,20,30,74
3641542475,38,36,28,46,21,30,77
3641592475,38,36,29,45,21,30,71
3641642475,38,35,28,45,21,29,68
3641692475,38,36,28,45,21,29,68
3641742475,38,36,29,46,21,29,72
3641792475,38,36,28,46,21,30,77
3641842475,38,36,28,46,21,30,79
3641892475,38,36,28,46,21,29,74
3641942475,38,36,28,46,20,30,72
3641992475,38,36,29,45,21,30,68
3642042475,38,36,28,46,21,29,64
3642092475,38,36,29,46,21,30,69
3642142475,38,36,29,45,20,29,70
3642192475,38,36,28,47,21,30,66
3642242475,39,37,29,51,21,30,66
3642292475,50,37,30,71,25,31,67
3642342475,73,40,47,71,23,31,66
3642392475,104,41,67,74,22,30,70
3642442475,147,41,79,71,22,31,123
3642492475,163,43,90,65,25,31,135
3642542475,183,42,90,57,25,30,113
3642592475,222,45,110,59,28,31,86
3642642475,184,43,88,63,25,31,75
3642692475,182,44,93,56,24,30,70
3642742475,169,42,80,59,22,30,67
3642792475,225,47,105,51,22,30,76
3642842475,188,51,123,69,23,30,79
3642892475,196,72,103,102,22,31,93
3642942475,186,104,156,138,22,30,134
3642992475,196,150,145,247,41,30,118
3643042475,166,157,165,256,61,30,96
3643092475,183,191,206,499,73,29,230
3643142475,155,184,187,440,67,30,445
3643192475,90,173,193,399,41,30,592
3643242475,60,148,115,560,40,29,652
3643292475,65,161,129,462,31,29,662
3643342475,85,87,74,499,24,29,632
3643392475,104,58,71,460,23,30,577
3643442475,107,73,161,327,22,31,504
3643492475,70,49,72,219,21,30,366
3643542475,100,42,58,269,21,30,214
3643592475,59,40,38,151,21,31,180
3643642475,45,41,33,108,21,30,216
3643692475,40,39,32,117,21,30,230
3643742475,40,37,30,160,20,29,144
3643792475,39,37,29,218,20,29,103
3643842475,38,36,29,132,21,30,83
3643892475,38,36,28,125,21,30,96
3643942475,38,36,29,87,21,30,143
3643992475,38,36,29,106,21,30,175
3644042475,38,36,28,66,21,30,179
3644092475,38,36,29,53,21,30,131
3644142475,38,36,29,49,21,29,97
3644192475,38,36,28,51,21,30,81
3644242475,38,36,29,50,21,30,73
3644292475,38,37,28,50,21,30,69
3644342475,38,36,28,51,20,29,66
3644392475,38,36,29,53,20,30,65
3644442475,38,36,29,61,21,30,71
3644492475,38,36,29,61,21,30,87
3644542475,38,36,29,68,21,30,107
3644592475,38,37,30,67,22,30,116
3644642475,38,36,30,87,21,30,113
3644692475,38,37,29,72,21,29,115
3644742475,38,36,29,55,21,29,115
3644792475,38,36,29,51,21,29,114
3644842475,38,36,29,47,20,30,128
3644892475,38,36,28,46,21,29,138
3644942475,38,36,28,46,21,30,133
3644992475,38,36,29,46,21,30,136
3645042475,38,36,29,45,21,30,166
3645092475,38,37,29,45,20,29,190
3645142475,38,36,28,45,21,29,206
3645192475,38,36,29,45,21,30,222
3645242475,38,36,28,45,21,29,228
3645292475,38,36,28,45,21,30,223
3645342475,38,36,28,45,21,30,214
3645392475,38,36,28,45,20,30,205
3645442475,38,36,29,45,21,30,192
3645492475,38,36,28,46,21,29,179
3645542475,38,36,28,46,21,30,166
3645592475,38,36,28,46,21,31,154
3645642475,38,36,29,46,21,30,147
3645692475,38,36,28,45,21,30,141
3645742475,39,36,28,45,21,30,138
3645792475,38,36,28,45,21,30,138
3645842475,38,36,29,45,21,30,134
3645892475,38,36,28,45,21,30,133
3645942475,38,36,28,45,21,30,126
3645992475,38,36,28,46,20,30,116
3646042475,38,36,28,45,21,30,119
3646092475,38,36,28,45,21,30,121
3646142475,38,36,28,45,20,31,121
3646192475,38,36,28,45,21,30,117
3646242475,38,36,28,45,21,31,114
3646292475,38,36,28,45,21,30,108
3646342475,38,36,28,45,21,30,103
3646392475,38,36,28,45,21,30,103
3646442475,38,36,29,45,21,30,102
3646492475,38,36,28,45,21,30,97
3646542475,38,37,28,46,21,30,92
3646592475,38,36,28,45,21,30,89
3646642475,38,36,28,45,21,30,88
3646692475,38,36,28,45,21,29,84
3646742475,38,36,28,44,21,29,80
3646792475,38,36,28,45,21,30,79
3646842475,38,36,28,45,21,30,75
3646892475,38,36,28,45,21,30,72
3646942475,38,36,29,46,21,30,69
3646992475,38,36,28,45,21,29,67
3647042475,38,36,28,45,21,29,63
3647092475,38,36,28,46,21,30,61
3647142475,38,36,28,45,21,30,57
3647192475,38,36,29,45,21,30,54
3647242475,38,36,28,46,21,30,52
3647292475,39,36,28,45,21,30,49
3647342475,38,36,28,45,21,29,47
3647392475,39,36,29,45,21,29,46
3647442475,38,36,28,45,21,30,48
3647492475,38,36,28,45,21,30,46
3647542475,38,36,28,45,21,29,46
3647592475,38,36,28,46,21,30,56
3647642475,38,36,28,45,21,30,61
3647692475,38,36,28,45,21,30,63
3647742475,39,36,28,46,21,30,64
3647792475,38,36,28,45,21,30,64
3647842475,39,36,28,45,21,29,65
3647892475,38,36,28,46,21,30,65
3647942475,38,36,28,45,21,30,65
3647992475,38,36,28,45,21,30,65
3648042475,38,36,28,45,21,30,64
3648092475,38,36,29,45,21,29,65
3648142475,38,36,28,45,21,30,65
3648192475,38,36,28,45,21,30,65
3648242475,37,36,28,45,21,30,65
3648292475,38,36,28,45,21,30,65
3648342475,38,36,28,45,21,29,65
3648392475,38,36,28,45,21,29,65
3648442475,37,36,28,45,21,30,64
3648492475,38,36,28,45,21,29,65
3648542475,38,36,28,46,21,30,65
3648592475,38,36,28,45,21,30,65
3648642475,38,36,28,45,21,30,65
3648692475,38,36,28,45,20,30,65
3648742475,38,36,28,45,21,30,65
3648792475,38,36,28,45,21,30,65
3648842475,38,36,29,45,20,29,65
3648892475,38,36,28,46,21,29,65
3648942475,38,36,28,45,21,30,64
3648992475,38,36,28,45,21,29,65
3649042475,38,36,28,45,20,30,65
3649092475,38,36,28,45,22,30,65
3649142475,38,36,29,45,25,30,65
3649192475,38,36,28,46,24,29,65
3649242475,38,36,29,46,26,29,64
3649292475,38,36,29,45,25,30,65
3649342475,38,36,28,46,23,29,65
3649392475,38,36,29,45,22,29,65
3649442475,38,36,29,45,25,31,65
3649492475,38,36,29,45,24,31,65
3649542475,38,36,28,45,22,30,65
3649592475,38,36,28,45,23,30,65
3649642475,38,36,28,45,23,30,65
3649692475,38,36,28,46,22,30,65
3649742475,39,36,28,46,22,30,65
3649792475,38,36,29,46,21,31,65
3649842475,38,36,28,45,24,31,65
3649892475,38,36,29,46,23,30,65
3649942475,38,36,29,45,22,32,65
3649992475,38,35,29,45,22,31,64
3650042475,38,36,29,45,21,30,65
3650092475,38,36,28,46,21,30,64
3650142475,39,36,29,46,21,30,65
3650192475,38,36,29,45,22,31,64
3650242475,39,36,29,45,21,30,65
3650292475,38,36,28,45,21,30,65
3650342475,38,36,29,45,21,30,65
3650392475,38,36,29,45,21,30,63
3650442475,38,37,28,45,21,30,61
3650492475,38,37,29,46,21,30,58
3650542475,38,36,29,45,21,30,53
3650592475,38,36,28,45,21,30,52
3650642475,38,36,29,45,21,30,52
3650692475,39,36,28,45,20,30,52
3650742475,38,36,29,46,20,30,53
3650792475,39,36,29,45,21,29,55
3650842475,39,37,28,45,21,29,54
3650892475,38,36,29,45,21,29,53
3650942475,38,36,28,45,20,29,53
3650992475,38,36,28,45,21,30,53
3651042475,38,36,28,46,20,30,52
3651092475,38,36,28,46,21,29,59
3651142475,38,36,28,45,21,29,62
3651192475,38,36,28,45,21,30,63
3651242475,38,36,29,45,21,30,64
3651292475,38,36,28,45,21,30,64
3651342475,38,36,29,45,21,30,65
3651392475,38,36,28,45,20,30,64
3651442475,38,36,29,45,21,30,60
3651492475,39,36,28,45,20,30,58
3651542475,38,36,28,45,21,30,59
3651592475,38,36,28,46,21,29,60
3651642475,38,36,28,46,21,30,61
3651692475,38,36,28,45,21,30,62
3651742475,38,36,28,45,21,30,63
3651792475,38,36,29,45,20,30,64
3651842475,38,36,29,45,20,30,62
3651892475,38,36,28,45,21,30,59
3651942475,39,36,28,46,20,29,57
3651992475,38,36,28,45,21,30,56
3652042475,39,36,29,45,21,30,55
3652092475,38,36,28,45,21,30,52
3652142475,38,36,28,46,21,30,53
3652192475,38,36,28,45,21,30,52
3652242475,38,36,28,46,21,29,52
3652292475,38,36,29,45,21,30,54
3652342475,38,36,28,45,21,29,53
3652392475,38,36,28,46,21,29,53
3652442475,38,36,28,45,21,29,56
3652492475,38,36,28,45,20,29,56
3652542475,38,35,28,45,20,29,53
3652592475,38,36,28,45,21,30,53
3652642475,38,36,28,45,21,30,53
3652692475,38,36,28,46,21,30,53
3652742475,38,36,28,45,21,29,53
3652792475,38,36,28,46,21,30,52
3652842475,38,36,29,46,21,30,52
3652892475,38,36,29,46,21,30,55
3652942475,39,36,28,46,21,30,50
3652992475,38,36,29,46,21,30,57
3653042475,38,36,29,46,21,29,61
3653092475,38,36,29,45,20,29,62
3653142475,38,36,29,45,20,30,64
3653192475,38,36,29,48,21,29,65
3653242475,38,36,29,49,21,30,65
3653292475,38,36,30,65,21,31,63
3653342475,58,38,32,68,22,30,57
3653392475,120,40,39,67,22,30,52
3653442475,140,40,52,69,22,30,58
3653492475,120,40,52,59,23,31,88
3653542475,183,41,58,57,23,30,144
3653592475,216,46,81,56,21,30,168
3653642475,216,45,74,54,23,30,130
3653692475,270,49,86,52,22,31,96
3653742475,279,52,103,54,22,31,80
3653792475,277,56,106,58,25,30,72
3653842475,219,47,84,58,22,31,68
3653892475,187,43,69,65,23,31,65
3653942475,190,43,70,72,23,32,68
3653992475,161,40,62,61,22,32,70
3654042475,278,50,103,70,25,31,68
3654092475,268,51,105,75,23,32,69
3654142475,253,49,103,68,22,32,73
3654192475,369,59,146,61,22,31,74
3654242475,267,57,137,52,23,30,71
3654292475,296,64,173,74,23,30,66
3654342475,317,82,141,123,22,30,65
3654392475,276,69,125,223,24,31,65
3654442475,271,114,223,250,63,30,98
3654492475,225,154,183,302,80,30,270
3654542475,291,162,176,311,92,32,487
3654592475,269,159,192,610,77,32,663
3654642475,210,156,145,474,55,31,796
3654692475,193,120,101,398,86,33,890
3654742475,165,134,131,438,81,31,922
3654792475,109,101,111,345,87,30,916
3654842475,114,121,88,294,128,32,876
3654892475,94,66,55,355,57,30,833
3654942475,213,54,71,308,34,30,789
3654992475,192,49,72,177,26,30,727
3655042475,104,44,56,163,23,30,605
3655092475,79,40,47,107,22,31,386
3655142475,63,41,44,133,22,30,217
3655192475,79,42,36,125,21,30,152
3655242475,90,39,38,135,21,29,179
3655292475,76,37,33,153,21,30,182
3655342475,55,37,31,180,21,30,128
3655392475,56,36,30,139,21,30,154
3655442475,44,36,29,112,21,30,181
3655492475,40,36,29,74,21,30,194
3655542475,39,36,29,57,21,30,208
3655592475,38,36,29,49,21,30,225
3655642475,38,36,28,48,21,30,237
3655692475,38,36,29,46,21,30,208
3655742475,38,36,28,46,22,30,132
3655792475,38,36,28,48,21,30,97
3655842475,38,36,29,48,20,30,81
3655892475,38,36,29,50,21,30,73
3655942475,38,36,29,50,21,29,69
3655992475,38,36,29,53,21,30,67
3656042475,42,36,29,58,21,30,66
3656092475,42,36,28,61,21,30,65
3656142475,40,36,29,95,27,30,69
3656192475,39,36,30,105,22,30,93
3656242475,39,36,30,93,22,30,118
3656292475,39,37,29,69,21,30,137
3656342475,38,36,29,54,21,30,173
3656392475,38,35,28,48,21,30,196
3656442475,38,36,29,46,21,30,217
3656492475,38,36,28,48,21,30,227
3656542475,38,37,29,46,20,29,229
3656592475,38,36,29,47,20,30,248
3656642475,38,36,28,46,21,30,252
3656692475,38,36,28,46,21,30,233
3656742475,38,36,28,46,21,30,232
3656792475,38,36,28,46,21,29,231
3656842475,38,36,28,45,21,29,218
3656892475,38,36,28,46,21,29,214
3656942475,38,36,28,45,21,30,214
3656992475,39,36,28,45,21,30,202
3657042475,38,36,29,45,21,29,197
3657092475,38,36,29,45,21,30,188
3657142475,38,36,28,45,21,30,172
3657192475,38,36,28,45,21,30,167
3657242475,38,36,28,45,21,29,154
3657292475,38,36,29,45,21,29,142
3657342475,38,36,28,45,21,29,146
3657392475,38,36,28,45,21,30,139
3657442475,38,36,28,45,20,30,130
3657492475,38,36,28,45,21,30,129
3657542475,38,36,28,45,21,30,126
3657592475,38,36,28,45,21,29,124
3657642475,39,36,28,46,21,30,118
3657692475,38,36,28,45,21,29,112
3657742475,38,36,28,45,21,29,113
3657792475,38,37,28,45,20,29,112
3657842475,38,36,28,45,21,30,104
3657892475,38,36,29,45,21,30,99
3657942475,38,36,28,45,21,29,93
3657992475,38,36,28,45,21,30,90
3658042475,38,36,28,45,21,29,88
3658092475,38,36,28,45,21,29,84
3658142475,38,36,28,45,21,30,81
3658192475,38,36,28,46,21,30,80
3658242475,39,36,28,45,21,29,77
3658292475,38,36,28,45,21,29,77
3658342475,38,36,28,45,21,29,73
3658392475,38,36,28,45,21,29,71
3658442475,38,36,29,45,21,29,69
3658492475,38,36,28,45,20,29,66
3658542475,38,36,28,45,21,29,64
3658592475,38,36,29,45,21,29,58
3658642475,38,36,28,45,21,29,58
3658692475,39,36,28,45,20,29,63
3658742475,38,36,29,46,21,29,59
3658792475,38,36,29,46,21,29,63
3658842475,38,36,28,45,21,29,68
3658892475,38,36,28,45,21,29,63
3658942475,38,36,29,45,21,29,67
3658992475,38,36,28,46,20,29,67
3659042475,38,36,28,45,21,29,61
3659092475,38,36,28,45,21,29,64
3659142475,38,36,29,45,21,29,62
3659192475,38,36,28,45,20,30,59
3659242475,38,36,28,45,21,30,62
3659292475,39,36,28,45,21,30,62
3659342475,38,36,28,46,21,29,57
3659392475,38,36,28,45,21,30,57
3659442475,38,36,28,45,21,29,54
3659492475,38,36,29,45,20,29,53
3659542475,38,36,28,45,21,29,54
3659592475,38,36,28,45,21,29,50
3659642475,38,36,28,45,21,29,50
3659692475,38,36,28,45,21,30,50
3659742475,38,36,29,45,21,29,50
3659792475,38,36,28,45,20,30,53
3659842475,38,36,29,45,20,29,50
3659892475,38,36,28,45,21,29,51
3659942475,38,36,28,45,21,29,52
3659992475,38,36,28,46,21,29,49
3660042475,38,36,28,45,21,30,49
3660092475,38,36,29,46,21,29,46
3660142475,38,36,29,45,21,29,47
3660192475,38,36,28,46,21,29,47
3660242475,38,36,28,45,21,30,46
3660292475,38,36,28,44,21,30,48
3660342475,39,38,29,45,21,30,46
3660392475,38,36,28,45,20,30,44
3660442475,38,36,28,45,21,30,46
3660492475,39,36,28,45,21,29,47
3660542475,38,36,28,46,21,29,46
3660592475,38,36,28,45,21,29,45
3660642475,38,36,28,45,21,30,45
3660692475,38,36,28,45,21,30,46
3660742475,38,36,28,45,21,30,47
3660792475,38,36,28,45,21,30,45
3660842475,38,36,28,45,21,30,46
3660892475,38,36,28,45,20,30,44
3660942475,38,36,28,45,20,30,44
3660992475,38,36,28,45,21,29,44
3661042475,38,36,28,45,21,29,50
3661092475,38,36,28,45,21,30,58
3661142475,38,36,28,46,20,30,61
3661192475,38,36,28,45,21,31,63
3661242475,38,36,28,45,21,30,64
3661292475,38,36,28,45,21,30,64
3661342475,38,36,28,45,21,30,65
3661392475,39,36,29,45,21,30,65
3661442475,38,36,28,45,21,30,65
3661492475,38,36,28,47,21,30,65
3661542475,38,36,28,48,20,30,65
3661592475,38,36,28,46,21,30,65
3661642475,38,36,28,46,20,29,65
3661692475,38,36,28,46,21,29,65
3661742475,38,36,28,46,21,29,65
3661792475,38,36,28,47,21,29,65
3661842475,38,36,28,49,21,29,65
3661892475,38,36,28,48,21,31,64
3661942475,38,36,29,46,21,30,65
3661992475,38,36,28,46,20,30,65
3662042475,38,36,28,47,21,30,65
3662092475,38,36,28,48,21,30,65
3662142475,38,36,29,48,21,29,60
3662192475,38,36,28,50,21,30,55
3662242475,38,36,28,50,21,30,50
3662292475,38,36,28,51,21,30,48
3662342475,38,36,28,47,21,30,46
3662392475,38,36,28,46,21,30,48
3662442475,38,36,28,97,21,31,45
3662492475,38,36,28,110,21,30,50
3662542475,38,36,29,71,21,30,58
3662592475,38,36,29,55,21,30,61
3662642475,38,36,29,49,21,30,63
3662692475,38,36,28,46,20,30,64
3662742475,38,36,28,46,20,30,64
3662792475,38,36,28,45,21,30,64
3662842475,38,36,28,45,21,30,64
3662892475,38,36,28,45,20,30,65
3662942475,38,36,28,45,21,30,65
3662992475,38,37,28,45,21,30,65
3663042475,38,36,28,45,21,29,65
3663092475,38,36,28,45,21,30,65
3663142475,38,36,28,46,21,30,65
3663192475,38,36,28,48,21,29,65
3663242475,38,36,28,48,21,30,65
3663292475,38,36,28,46,21,30,65
3663342475,38,36,29,46,22,29,65
3663392475,38,36,28,45,21,30,65
3663442475,38,37,29,46,21,29,65
3663492475,39,36,29,47,21,29,65
3663542475,39,36,28,47,21,30,65
3663592475,38,36,28,46,21,30,65
3663642475,38,36,29,46,22,30,65
3663692475,38,36,28,46,21,30,65
3663742475,38,36,28,48,22,30,65
3663792475,38,36,29,47,22,30,65
3663842475,38,36,28,47,21,30,65
3663892475,38,36,29,48,22,30,65
3663942475,39,36,29,49,22,30,65
3663992475,38,36,28,49,21,29,65
3664042475,38,37,28,47,21,31,65
3664092475,38,35,29,46,22,31,65
3664142475,38,36,28,46,21,30,65
3664192475,38,36,28,46,21,30,65
3664242475,38,36,28,46,21,30,65
3664292475,39,36,29,46,21,30,65
3664342475,38,36,28,46,21,30,65
3664392475,38,36,28,46,21,31,65
3664442475,38,36,29,45,21,30,65
3664492475,38,36,28,46,21,31,65
3664542475,38,37,29,45,21,30,65
3664592475,38,36,29,46,21,30,65
3664642475,38,36,28,46,21,30,65
3664692475,38,36,28,46,21,32,65
3664742475,38,37,29,45,21,30,65
3664792475,38,36,28,45,21,31,65
3664842475,38,36,28,45,20,32,66
3664892475,38,36,28,45,21,31,65
3664942475,38,36,28,46,21,32,65
3664992475,38,36,29,45,21,31,65
3665042475,38,36,28,46,20,31,65
3665092475,38,36,28,46,21,30,65
3665142475,38,36,28,46,21,31,65
3665192475,38,36,29,45,21,30,65
3665242475,38,36,28,45,20,30,65
3665292475,38,36,28,45,20,30,64
3665342475,38,36,28,46,20,30,65
3665392475,38,36,28,46,21,30,65
3665442475,38,36,28,46,21,30,65
3665492475,38,36,28,46,21,30,65
3665542475,38,36,28,45,21,30,65
3665592475,38,36,28,45,21,30,65
3665642475,38,36,28,45,21,30,65
3665692475,38,36,28,45,21,30,65
3665742475,38,36,28,46,21,30,65
3665792475,38,36,28,45,20,29,65
3665842475,38,36,28,46,20,30,65
3665892475,38,36,28,45,21,30,65
3665942475,38,36,28,45,21,29,65
3665992475,38,36,28,46,21,30,65
3666042475,38,36,28,45,21,30,65
3666092475,38,36,28,45,21,30,65
3666142475,38,36,28,46,21,31,65
3666192475,39,36,28,46,21,30,64
3666242475,38,36,28,45,21,30,65
3666292475,38,36,28,46,21,29,65
3666342475,38,36,28,45,21,30,64
3666392475,38,37,28,45,21,29,65
3666442475,38,36,28,45,21,30,65
3666492475,38,36,27,45,21,29,65
3666542475,38,36,28,46,20,30,65
3666592475,38,36,28,45,21,30,65
3666642475,38,36,28,46,21,30,65
3666692475,38,36,28,45,20,30,65
3666742475,38,36,28,46,21,30,65
3666792475,38,36,28,46,21,30,65
3666842475,38,36,28,46,20,30,65
3666892475,38,36,28,46,21,30,65
3666942475,38,36,28,45,21,30,65
3666992475,38,36,28,46,21,30,65
3667042475,38,36,28,45,21,29,65
3667092475,38,36,28,45,20,30,65
3667142475,38,36,28,45,21,29,65
3667192475,38,36,28,45,21,30,65
3667242475,38,36,28,46,21,30,65
3667292475,38,36,28,45,21,30,65
3667342475,38,36,28,45,21,30,65
3667392475,38,36,29,45,20,29,64
3667442475,38,36,28,45,20,30,65
3667492475,38,36,29,46,21,30,65
3667542475,38,36,28,46,21,30,65
3667592475,38,36,28,46,21,30,65
3667642475,38,36,28,45,20,30,65
3667692475,38,36,28,45,20,30,65
3667742475,38,36,28,45,21,29,65
3667792475,38,36,28,45,21,30,65
3667842475,38,36,29,45,21,30,64
3667892475,38,36,28,45,20,30,65
3667942475,38,36,29,45,20,30,65
3667992475,38,36,28,46,21,30,65
3668042475,38,36,28,45,21,30,65
3668092475,38,36,29,45,20,30,65
3668142475,39,36,28,46,21,30,65
3668192475,39,36,28,46,21,31,65
3668242475,38,36,29,46,21,30,65
3668292475,38,36,28,51,21,30,65
3668342475,38,36,29,48,21,30,65
3668392475,38,36,28,46,21,30,65
3668442475,38,36,28,46,22,30,65
3668492475,38,37,29,46,22,30,65
3668542475,38,36,28,46,21,30,66
3668592475,38,36,28,46,22,31,65
3668642475,38,36,28,46,22,30,65
3668692475,37,36,27,46,21,30,65
3668742475,38,36,28,45,22,30,65
3668792475,38,36,28,45,23,32,65
3668842475,38,36,29,46,23,31,65
3668892475,38,36,28,46,24,31,65
3668942475,38,36,29,46,24,31,65
3668992475,38,36,29,45,22,30,65
3669042475,38,36,28,45,21,29,65
3669092475,38,36,28,46,23,29,65
3669142475,38,36,29,45,22,30,65
3669192475,38,36,28,45,21,30,65
3669242475,38,36,28,45,21,29,65
3669292475,38,37,29,45,21,30,65
3669342475,38,36,28,46,21,29,65
3669392475,38,36,29,45,21,30,65
3669442475,38,36,28,45,21,29,65
3669492475,38,36,28,45,21,29,65
3669542475,38,36,28,45,21,30,65
3669592475,38,36,29,46,21,30,65
3669642475,38,36,29,45,21,30,65
3669692475,38,36,28,46,21,30,65
3669742475,38,36,29,46,21,30,65
3669792475,38,36,28,46,21,30,65
3669842475,38,36,29,46,21,29,65
3669892475,38,36,28,46,21,30,65
3669942475,38,36,28,45,22,30,65
3669992475,38,36,29,45,21,30,65
3670042475,38,36,28,45,21,30,64
3670092475,38,36,28,45,21,30,65
3670142475,38,36,28,46,21,30,65
3670192475,39,36,29,45,21,30,65
3670242475,38,36,28,45,21,30,65
3670292475,38,36,29,45,21,30,65
3670342475,38,36,28,46,21,30,65
3670392475,38,36,28,46,20,30,65
3670442475,38,36,29,46,21,30,65
3670492475,38,36,28,46,21,29,65
3670542475,38,36,28,45,20,30,65
3670592475,38,36,28,46,20,29,65
3670642475,38,36,28,46,21,30,65
3670692475,91,36,28,46,21,29,65
3670742475,268,37,28,46,21,30,65
3670792475,252,36,28,45,21,30,65
3670842475,138,36,29,45,21,30,65
3670892475,72,36,29,45,21,29,65
3670942475,49,36,29,46,21,29,65
3670992475,42,36,28,46,21,29,64
3671042475,39,36,28,46,21,30,65
3671092475,39,36,28,45,20,31,65
3671142475,38,36,28,45,20,29,65
3671192475,38,36,28,45,21,29,64
3671242475,38,36,28,45,21,30,65
3671292475,38,36,28,46,21,30,65
3671342475,38,36,28,46,21,30,65
3671392475,38,36,29,46,21,29,65
3671442475,38,36,28,46,21,29,65
3671492475,38,36,29,45,21,30,66
3671542475,38,36,28,46,21,31,65
3671592475,38,37,29,46,21,30,65
3671642475,38,36,28,45,21,29,65
3671692475,38,36,28,45,20,30,65
3671742475,39,35,28,45,21,30,65
3671792475,38,36,29,45,21,30,65
3671842475,38,36,28,45,20,30,65
3671892475,38,36,28,46,21,30,65
3671942475,38,36,28,46,21,30,65
3671992475,38,36,28,45,21,29,65
3672042475,38,36,28,45,21,30,65
3672092475,38,36,28,45,21,30,65
3672142475,38,36,28,45,21,30,65
3672192475,38,36,28,46,21,30,65
3672242475,38,36,29,46,21,30,65
3672292475,38,36,28,46,21,30,65
3672342475,38,35,29,45,21,30,65
3672392475,38,36,28,45,20,30,65
3672442475,38,36,28,45,21,30,65
3672492475,38,36,28,45,21,30,65
3672542475,38,36,29,45,21,29,65
3672592475,38,36,29,46,21,30,65
3672642475,38,36,29,46,21,30,65
3672692475,38,36,29,45,21,30,65
3672742475,38,36,28,45,21,29,65
3672792475,38,36,28,46,21,29,65
3672842475,38,36,28,45,20,29,65
3672892475,38,36,28,45,21,30,65
3672942475,38,36,28,46,21,30,65
3672992475,38,36,28,45,21,30,65
3673042475,38,36,28,46,21,30,65
3673092475,38,36,28,46,21,30,65
3673142475,38,36,28,45,21,30,65
3673192475,38,36,28,45,21,30,65
3673242475,38,36,28,46,21,30,65
3673292475,38,36,28,46,21,30,65
3673342475,38,36,28,45,20,30,64
3673392475,39,36,28,46,21,30,65
3673442475,38,36,28,46,21,30,65
3673492475,38,36,28,47,21,29,64
3673542475,38,36,28,46,21,29,65
3673592475,38,36,28,46,21,29,65
3673642475,38,36,28,45,21,30,65
3673692475,38,36,28,44,21,30,65
3673742475,38,36,28,46,21,30,65
3673792475,38,36,28,46,21,29,65
3673842475,38,36,28,45,20,30,65
3673892475,38,36,28,46,21,30,65
3673942475,38,36,28,46,21,29,65
3673992475,38,36,28,45,20,30,65
3674042475,38,36,28,46,21,29,65
3674092475,38,36,28,46,21,30,64
3674142475,38,36,28,45,21,30,65
3674192475,38,36,28,46,21,30,65
3674242475,38,36,28,45,20,29,65
3674292475,39,36,28,46,21,30,65
3674342475,38,36,28,46,20,30,65
3674392475,38,36,29,46,21,29,65
3674442475,38,36,29,46,20,29,65
3674492475,38,36,28,46,21,30,65
3674542475,38,36,28,46,21,30,65
3674592475,38,36,28,46,21,30,65
3674642475,38,36,28,46,21,30,65
3674692475,38,36,28,45,21,30,65
3674742475,38,37,28,45,21,30,65
3674792475,38,36,28,46,20,30,65
3674842475,38,36,29,46,21,30,65
3674892475,38,36,28,46,20,30,65
3674942475,39,36,28,46,21,29,65
3674992475,38,36,28,46,21,29,65
3675042475,38,36,28,46,21,30,65
3675092475,39,36,28,46,21,29,65
3675142475,38,36,28,45,21,30,65
3675192475,38,36,29,45,21,30,65
3675242475,38,36,29,46,21,30,65
3675292475,38,36,29,46,21,30,65
3675342475,38,36,29,46,21,30,65
3675392475,38,37,29,46,21,30,65
