time,EMG1,EMG2,EMG3,EMG4,EMG5,EMG6,EMG7
66852503,155,148,117,185,89,122,3871
66885836,153,148,116,185,86,119,3238
66919169,155,147,117,183,88,121,2741
66952502,156,148,117,184,86,120,2312
66985835,154,148,117,183,86,122,1933
67019168,155,148,117,184,87,121,1610
67052501,155,148,117,184,86,122,1314
67085834,158,147,116,185,85,123,1104
67119167,155,151,117,183,87,122,935
67152500,155,148,116,184,84,120,757
67185833,154,148,118,184,87,121,598
67219166,154,145,114,181,90,122,468
67252499,154,147,116,184,89,123,361
67285832,155,148,117,184,88,125,298
67319165,156,148,116,185,89,123,257
67352498,155,147,116,184,88,122,227
67385831,154,147,117,183,87,122,210
67419164,155,148,116,185,87,122,206
67452497,155,148,116,185,88,122,3871
67485830,155,148,117,184,88,122,3264
67519163,155,148,117,183,88,123,2804
67552496,154,148,116,183,87,123,2411
67585829,154,147,115,185,87,121,2049
67619162,154,148,116,184,88,122,1710
67652495,155,148,116,183,87,123,1397
67685828,155,147,115,183,89,123,1148
67719161,155,148,114,185,87,119,913
67752494,153,149,116,183,88,123,710
67785827,156,147,116,184,89,122,542
67819160,156,148,116,183,88,122,417
67852493,156,147,114,184,87,123,329
67885826,155,148,117,184,85,123,277
67919159,155,147,116,185,87,124,238
67952492,155,148,117,184,95,124,219
67985825,156,148,117,183,89,125,214
68019158,155,147,116,183,86,123,3870
68052491,156,147,116,185,87,121,3199
68085824,157,147,117,183,89,124,2708
68119157,156,147,116,187,90,123,2271
68152490,156,148,118,185,89,123,1860
68185823,155,148,116,183,89,123,1549
68219156,156,147,116,184,88,124,1292
68252489,156,147,116,184,89,123,1087
68285822,155,147,116,183,86,120,919
68319155,156,147,116,184,89,123,728
68352488,155,148,115,185,91,123,531
68385821,155,150,117,184,91,123,401
68419154,155,148,117,183,89,122,314
68452487,156,148,116,184,90,123,262
68485820,155,147,116,185,88,122,237
68519153,155,147,116,185,88,123,225
68552486,155,148,117,185,86,123,3869
68585819,156,147,116,184,88,123,3501
68619152,155,148,116,184,87,125,2969
68652485,155,148,116,183,95,121,2523
68685818,156,149,116,184,93,123,2103
68719151,154,148,116,183,89,123,1713
68752484,155,148,116,183,90,123,1393
68785817,155,147,117,183,86,125,1182
68819150,155,148,117,185,87,122,1002
68852483,155,147,119,186,87,123,768
68885816,155,147,117,185,88,122,556
68919149,155,147,117,184,89,123,447
68952482,155,148,118,185,86,123,386
68985815,156,148,119,185,86,123,327
69019148,156,147,116,185,90,123,273
69052481,154,147,116,184,87,122,235
69085814,154,148,114,186,88,119,220
69119147,156,147,117,185,86,121,3868
69152480,155,147,115,187,87,121,3402
69185813,155,148,116,185,87,122,2903
69219146,155,148,114,184,89,122,2484
69252479,155,148,116,185,90,123,2126
69285812,155,147,117,185,89,121,1771
69319145,154,147,116,184,90,123,1444
69352478,155,147,117,184,97,123,1179
69385811,155,147,117,184,94,125,955
69419144,155,148,116,185,91,124,761
69452477,155,147,117,185,90,124,563
69485810,156,147,116,184,89,122,419
69519143,155,148,116,184,89,122,330
69552476,155,147,116,183,86,123,270
69585809,155,147,116,183,89,122,238
69619142,155,148,116,184,88,123,224
69652475,155,147,116,185,88,123,213
69685808,156,147,116,184,88,122,208
69719141,155,148,116,184,87,123,3869
69752474,155,147,117,186,87,123,3484
69785807,155,147,120,184,88,123,2908
69819140,155,148,116,184,87,123,2425
69852473,155,149,115,184,87,122,2028
69885806,156,147,116,183,88,123,1704
69919139,155,147,116,184,89,122,1422
69952472,156,147,116,184,86,122,1186
69985805,155,147,120,184,85,123,969
70019138,155,148,116,184,89,122,758
70052471,155,149,116,184,89,123,584
70085804,154,147,116,184,96,124,445
70119137,155,147,116,184,93,124,343
70152470,156,147,116,185,87,126,287
70185803,155,147,116,185,88,122,243
70219136,155,147,116,185,86,123,220
70252469,154,147,117,184,89,123,210
70285802,155,148,116,184,88,123,3870
70319135,155,147,116,184,88,122,3196
70352468,156,148,117,184,89,123,2765
70385801,154,147,117,184,90,124,2410
70419134,155,147,117,186,90,123,2056
70452467,156,146,115,186,91,120,1678
70485800,155,147,116,186,89,121,1307
70519133,158,147,117,184,87,123,1004
70552466,156,148,116,185,89,120,785
70585799,156,147,116,185,87,123,616
70619132,154,148,117,183,87,123,468
70652465,155,148,117,184,89,124,359
70685798,155,148,116,184,89,122,295
70719131,154,146,116,184,87,123,250
70752464,155,147,116,184,90,123,224
70785797,155,147,116,184,89,123,217
70819130,156,147,116,184,91,122,3869
70852463,155,144,116,184,89,125,3470
70885796,157,145,116,183,88,126,2735
70919129,155,147,116,184,88,123,2067
70952462,154,147,116,184,86,123,1734
70985795,155,148,116,185,86,123,1484
71019128,155,148,116,183,83,123,1127
71052461,155,148,116,183,83,123,859
71085794,155,148,117,184,86,123,708
71119127,156,148,117,181,85,123,604
71152460,155,148,117,185,86,120,528
71185793,155,148,115,185,83,123,408
71219126,155,145,116,184,85,123,324
71252459,155,150,117,184,89,123,267
71285792,157,149,120,184,87,122,240
71319125,155,147,116,185,85,120,221
71352458,156,147,116,181,86,121,210
71385791,156,148,117,186,86,123,198
71419124,156,147,117,184,86,122,192
71452457,156,147,116,183,86,123,193
71485790,156,147,117,187,85,123,3878
71519123,155,147,116,184,92,122,3657
71552456,156,147,116,183,89,127,3154
71585789,156,147,116,184,87,125,2707
71619122,155,148,117,185,85,123,2298
71652455,155,148,117,183,84,122,1974
71685788,156,147,116,183,84,123,1693
71719121,155,148,117,185,85,122,1407
71752454,156,144,116,184,87,122,1162
71785787,156,147,116,184,86,123,964
71819120,156,147,115,185,86,122,829
71852453,155,149,116,184,87,123,719
71885786,156,148,117,183,86,124,560
71919119,156,148,116,183,87,120,422
71952452,156,148,117,184,85,123,332
71985785,155,147,116,183,87,122,275
72019118,155,148,117,185,86,125,237
72052451,154,148,117,183,85,122,216
72085784,155,148,116,185,84,123,209
72119117,155,147,118,184,85,122,205
72152450,156,148,116,184,85,122,3877
72185783,155,149,117,184,86,122,3613
72219116,155,147,116,189,87,123,3096
72252449,156,147,117,188,91,124,2625
72285782,155,147,117,185,88,123,2212
72319115,156,146,116,183,87,123,1829
72352448,155,147,116,184,86,123,1491
72385781,155,148,116,184,87,122,1239
72419114,155,148,115,183,84,123,1007
72452447,154,147,116,183,86,122,827
72485780,156,147,116,183,86,122,677
72519113,155,147,119,185,85,122,554
72552446,316,154,183,190,87,121,453
72585779,377,155,192,213,86,122,351
72619112,409,167,248,208,86,121,295
72652445,347,158,186,197,85,120,3870
72685778,516,166,262,190,88,122,3872
72719111,415,160,213,187,84,121,2726
72752444,384,153,192,186,93,122,1730
72785777,280,151,160,189,89,120,1145
72819110,215,150,138,194,89,122,903
72852443,297,149,148,188,86,122,628
72885776,248,150,154,186,87,123,459
72919109,398,150,174,185,86,122,3878
72952442,273,152,143,193,90,124,3416
72985775,211,148,130,239,91,122,3108
73019108,181,148,122,212,89,124,2789
73052441,167,148,120,198,89,127,2038
73085774,162,148,118,192,87,125,1318
73119107,158,148,117,187,86,124,873
73152440,156,147,117,184,86,124,608
73185773,157,147,117,184,86,123,441
73219106,156,148,116,184,87,123,3869
73252439,154,148,116,185,87,124,3026
73285772,155,147,117,183,85,123,2102
73319105,154,148,118,183,83,122,1662
73352438,155,147,116,183,83,121,1216
73385771,155,148,116,183,85,121,818
73419104,156,150,116,184,86,123,573
73452437,155,147,116,183,84,123,563
73485770,155,148,116,184,86,122,522
73519103,152,147,116,183,86,123,449
73552436,154,147,118,183,85,120,417
73585769,155,147,116,184,86,122,421
73619102,156,147,116,183,85,122,331
73652435,156,148,116,183,83,124,272
73685768,155,147,116,184,87,123,3877
73719101,154,148,116,183,89,124,3403
73752434,154,148,116,183,88,123,2863
73785767,155,148,117,183,86,124,2345
73819100,156,148,116,184,86,122,1897
73852433,155,147,116,184,86,122,1529
73885766,155,148,117,183,85,122,1069
73919099,154,146,116,184,87,121,728
73952432,156,147,116,184,85,123,515
73985765,155,148,116,183,83,123,3878
74019098,156,147,116,183,86,123,3365
74052431,155,147,116,184,87,123,2844
74085764,155,148,115,184,85,121,2499
74119097,155,148,116,184,85,122,2196
74152430,157,148,116,184,85,123,1775
74185763,157,148,116,184,85,122,1424
74219096,153,147,117,185,84,122,1064
74252429,158,148,117,181,83,122,728
74285762,154,148,116,185,86,120,521
74319095,154,147,116,183,85,122,393
74352428,156,147,117,185,84,124,311
74385761,154,148,116,184,91,123,260
74419094,154,146,117,183,88,125,227
74452427,154,148,116,184,87,122,3877
74485760,155,148,116,184,84,122,3404
74519093,156,148,117,183,85,123,2794
74552426,155,146,116,183,85,121,2352
74585759,156,150,116,184,86,122,2011
74619092,155,147,117,184,85,122,1691
74652425,155,148,116,184,86,122,1388
74685758,157,148,117,185,85,122,1207
74719091,155,148,116,185,86,122,1005
74752424,156,148,118,184,86,123,781
74785757,155,145,116,183,86,122,591
74819090,154,148,115,184,84,122,436
74852423,155,148,116,184,86,121,339
74885756,155,148,116,184,86,122,286
74919089,157,147,117,183,85,122,3849
74952422,154,149,116,184,86,122,3225
74985755,155,148,115,185,85,122,2767
75019088,156,146,116,185,85,123,2275
75052421,155,148,117,185,86,123,1874
75085754,156,148,117,185,88,127,1608
75119087,155,148,116,183,84,125,1355
75152420,156,147,116,184,84,123,1038
75185753,158,148,116,184,86,124,713
75219086,154,147,117,184,86,125,511
75252419,157,148,116,185,87,122,3787
75285752,159,148,118,185,87,125,2402
75319085,160,147,116,187,85,122,1529
75352418,156,147,115,187,85,123,1011
75385751,156,148,116,185,86,122,3713
75419084,156,150,119,183,86,121,2345
75452417,156,148,117,183,83,123,1494
75485750,156,148,117,184,84,120,3737
75519083,179,149,126,186,86,121,3778
75552416,172,149,121,184,87,121,3868
75585749,165,148,119,185,87,123,3869
75619082,161,147,119,184,86,120,3874
75652415,159,147,117,184,84,120,3872
75685748,157,147,117,187,87,122,3870
75719081,156,148,117,183,88,121,3871
75752414,158,148,117,184,88,122,3871
75785747,158,148,117,183,87,122,3872
75819080,157,147,117,185,86,122,3872
75852413,156,148,116,184,85,121,3871
75885746,156,147,116,183,82,119,3872
75919079,155,148,116,183,86,122,3873
75952412,155,147,116,184,85,121,3871
75985745,154,147,117,185,86,122,3871
76019078,155,147,117,184,86,121,3869
76052411,154,147,116,185,85,122,3872
76085744,155,148,116,184,86,122,3872
76119077,155,148,117,183,84,121,3805
76152410,155,148,116,186,85,122,3874
76185743,155,148,116,186,87,122,3872
76219076,155,148,115,185,86,123,3874
76252409,153,148,117,187,86,124,3873
76285742,154,147,116,186,86,121,3869
76319075,155,149,117,185,86,122,3868
76352408,156,147,115,185,86,125,3868
76385741,156,147,117,184,87,127,3868
76419074,157,148,116,185,91,128,3868
76452407,155,148,117,184,89,126,3869
76485740,154,148,117,184,87,124,3869
76519073,155,148,117,185,89,123,3868
76552406,155,148,116,185,86,123,3868
76585739,156,148,116,184,85,122,3868
76619072,156,148,117,185,83,124,3869
76652405,155,147,118,184,84,123,3869
76685738,155,147,117,186,86,122,3868
76719071,155,147,116,184,86,123,3858
76752404,155,147,116,184,85,124,3482
76785737,155,148,117,184,84,121,3097
76819070,152,148,116,184,85,123,2754
76852403,154,147,117,185,84,122,2467
76885736,155,147,117,184,86,122,2237
76919069,155,147,117,180,85,122,2048
76952402,155,147,116,195,85,121,1928
76985735,155,147,117,191,85,121,1830
77019068,155,148,116,189,87,132,1725
77052401,155,146,119,205,91,133,1560
77085734,168,147,125,196,95,195,1346
77119067,158,148,120,190,90,157,1136
77152400,162,146,118,189,91,269,1004
77185733,221,148,130,209,89,202,1016
77219066,210,148,125,211,90,280,1171
77252399,182,147,124,224,87,279,1508
77285732,181,148,120,386,91,277,1402
77319065,170,144,118,291,94,313,1243
77352398,202,148,123,273,93,309,951
77385731,190,148,125,295,90,232,1166
77419064,173,147,121,310,91,227,1368
77452397,197,149,127,383,90,252,2048
77485730,226,148,143,327,89,217,2817
77519063,214,149,162,307,89,240,3818
77552396,210,150,150,268,86,229,3869
77585729,196,148,133,251,87,213,3867
77619062,213,150,138,220,87,190,3869
77652395,217,148,134,208,88,264,3868
77685728,196,148,127,209,86,198,3867
77719061,205,148,127,197,95,170,3868
77752394,196,148,125,195,94,146,3868
77785727,193,148,126,202,94,196,3869
77819060,178,147,127,196,90,185,3868
77852393,211,148,128,189,88,204,3868
77885726,256,150,152,194,88,246,3869
77919059,207,149,137,193,86,194,3868
77952392,272,149,152,190,88,189,3868
77985725,225,148,134,189,87,158,3870
78019058,206,149,146,187,87,149,3641
78052391,185,149,138,186,95,239,3367
78085724,172,149,136,185,90,200,3117
78119057,172,147,132,191,89,176,2888
78152390,175,147,135,188,89,156,2679
78185723,174,150,135,186,88,146,2482
78219056,195,150,143,186,87,161,2303
78252389,187,150,144,193,87,147,2136
78285722,204,150,147,188,87,135,1970
78319055,213,149,139,189,87,149,1828
78352388,197,149,133,190,88,145,1697
78385721,181,151,139,188,88,135,1573
78419054,180,148,131,187,87,130,1460
78452387,169,150,129,188,87,129,1355
78485720,171,149,131,190,86,131,1257
78519053,236,151,147,190,87,131,1167
78552386,195,150,131,188,84,127,1082
78585719,204,150,147,198,89,130,1006
78619052,202,150,138,232,90,125,933
78652385,192,149,127,208,86,125,866
78685718,205,150,138,199,87,123,805
78719051,208,148,132,196,88,125,748
78752384,186,149,127,197,89,123,694
78785717,174,148,123,196,88,123,646
78819050,175,148,122,194,96,127,600
78852383,165,148,120,190,91,129,558
78885716,196,145,131,188,93,136,519
78919049,175,148,125,196,93,148,483
78952382,210,149,129,194,91,159,449
78985715,280,152,156,198,118,152,418
79019048,221,154,149,201,104,157,387
79052381,210,151,133,193,111,148,364
79085714,203,149,129,190,106,148,337
79119047,180,149,123,197,99,153,314
79152380,169,149,122,191,94,157,295
79185713,164,149,120,188,92,161,275
79219046,169,149,122,190,94,160,257
79252379,165,150,130,233,95,161,239
79285712,162,149,124,210,95,173,225
79319045,168,151,134,210,116,166,211
79352378,186,167,163,218,296,162,198
79385711,169,163,140,221,238,170,185
79419044,173,157,145,208,162,167,174
79452377,169,173,160,246,139,179,163
79485710,163,162,143,217,110,174,154
79519043,197,180,218,250,122,203,145
79552376,186,169,185,277,128,206,136
79585709,176,163,182,245,127,224,136
79619042,173,171,189,256,180,228,170
79652375,164,158,153,394,134,252,188
79685708,239,178,210,375,167,219,202
79719041,209,166,172,360,178,270,210
79752374,271,167,185,334,176,292,215
79785707,436,181,328,427,142,351,216
79819040,1033,396,858,400,142,387,219
79852373,1234,1317,1206,444,151,353,220
79885706,1587,1344,1316,361,128,275,220
79919039,1294,1995,1813,416,193,384,219
79952372,1495,1683,1506,379,172,392,219
79985705,908,1680,1974,334,143,342,219
80019038,1639,1723,1890,385,137,325,219
80052371,1114,1572,2186,351,168,431,220
80085704,1496,1932,2233,332,136,469,219
80119037,845,1150,1459,283,153,456,219
80152370,937,1499,1562,387,129,483,219
80185703,594,891,869,296,160,339,219
80219036,507,877,948,269,158,297,218
80252369,494,803,1219,250,147,419,218
80285702,659,935,1500,233,146,342,218
80319035,503,1028,1176,257,166,455,218
80352368,430,912,1396,223,196,387,217
80385701,518,1320,1373,228,168,319,217
80419034,424,1306,1298,204,226,291,218
80452367,501,1384,1157,195,234,487,218
80485700,374,975,1038,203,245,391,218
80519033,391,1031,993,200,539,498,218
80552366,391,1169,857,279,359,388,217
80585699,388,1380,709,231,415,352,218
80619032,302,1314,917,243,713,444,218
80652365,285,1084,676,215,482,298,218
80685698,452,944,1078,201,453,504,217
80719031,339,986,830,196,357,370,218
80752364,315,923,882,199,373,360,219
80785697,246,695,636,217,283,329,218
80819030,315,900,833,210,480,274,216
80852363,320,848,732,208,462,230,217
80885696,291,751,583,211,322,198,216
80919029,310,623,463,204,336,193,217
80952362,266,638,467,203,301,177,218
80985695,322,674,398,209,428,184,217
81019028,252,696,480,217,280,166,217
81052361,305,923,558,217,211,184,216
81085694,260,564,421,227,325,170,216
81119027,291,601,340,251,329,178,217
81152360,253,545,330,278,325,152,213
81185693,238,557,290,292,226,142,216
81219026,243,597,347,299,321,146,216
81252359,255,694,395,304,343,153,215
81285692,417,602,428,317,347,151,216
81319025,321,742,496,286,528,162,216
81352358,403,934,774,265,323,143,213
81385691,447,714,1006,259,481,153,217
81419024,509,629,849,267,316,138,216
81452357,474,651,777,278,352,160,215
81485690,421,514,495,278,236,145,216
81519023,357,768,541,277,466,174,214
81552356,299,713,481,266,334,160,216
81585689,305,948,757,261,481,167,215
81619022,293,578,467,252,326,153,216
81652355,285,618,355,256,424,154,217
81685688,237,372,230,249,328,144,216
81719021,299,632,290,268,276,144,215
81752354,225,377,197,267,188,136,216
81785687,404,353,326,294,165,136,216
81819020,278,256,215,258,126,138,216
81852353,230,224,233,262,108,134,218
81885686,191,212,173,252,97,128,217
81919019,172,179,164,240,91,129,217
81952352,164,177,200,245,88,129,216
81985685,162,169,156,231,90,127,216
82019018,157,162,136,249,101,130,215
82052351,154,161,132,226,143,135,217
82085684,169,179,179,250,234,135,216
82119017,162,164,145,220,155,141,216
82152350,163,176,175,230,167,136,216
82185683,160,174,156,211,132,138,215
82219016,159,191,138,212,242,145,217
82252349,156,168,127,206,191,136,216
82285682,156,171,156,195,175,142,216
82319015,156,159,135,212,164,138,216
82352348,161,190,182,204,123,138,218
82385681,158,174,149,203,106,134,216
82419014,161,202,208,194,121,131,216
82452347,158,209,171,213,108,129,216
82485680,175,271,209,201,102,128,216
82519013,165,220,178,202,101,134,217
82552346,162,197,197,200,99,132,216
82585679,163,230,155,198,95,135,216
82619012,170,226,238,201,106,132,215
82652345,175,236,178,199,106,130,216
82685678,165,189,145,196,105,136,216
82719011,162,174,214,210,126,136,216
82752344,157,161,162,213,180,131,216
82785677,157,154,140,208,165,128,216
82819010,182,151,138,230,140,132,216
82852343,194,164,158,245,200,128,217
82885676,178,155,137,250,158,136,216
82919009,172,219,190,222,266,134,214
82952342,183,221,199,208,187,135,216
82985675,178,236,199,201,160,133,216
83019008,207,292,197,201,121,130,217
83052341,227,267,176,205,121,131,216
83085674,203,390,287,200,181,135,217
83119007,205,398,209,194,358,149,217
83152340,186,360,295,194,252,132,215
83185673,170,386,212,188,173,130,217
83219006,164,265,203,191,176,136,216
83252339,164,225,222,189,136,135,216
83285672,165,347,184,186,112,134,216
83319005,162,277,203,197,117,138,217
83352338,162,265,202,206,215,132,216
83385671,170,343,234,238,211,141,216
83419004,163,282,215,220,278,139,216
83452337,161,297,195,202,406,139,217
83485670,227,331,215,310,333,147,216
83519003,201,269,169,265,394,144,217
83552336,238,298,173,301,274,135,216
83585669,194,219,152,340,272,144,220
83619002,254,347,228,533,248,141,216
83652335,201,244,171,696,394,141,216
83685668,212,291,312,714,264,149,216
83719001,180,218,211,837,206,138,217
83752334,200,313,246,605,186,146,217
83785667,178,263,180,479,133,137,216
83819000,167,291,207,524,152,146,217
83852333,161,224,169,354,121,139,216
83885666,159,252,171,270,113,133,215
83918999,161,260,141,237,108,144,216
83952332,162,287,201,218,105,134,216
83985665,158,307,174,206,100,134,216
84018998,156,234,169,201,95,147,216
84052331,160,304,218,193,103,135,217
84085664,157,274,206,195,95,135,216
84118997,158,329,227,194,116,139,216
84152330,155,257,230,195,106,132,216
84185663,160,276,199,192,97,150,216
84218996,158,278,215,192,91,135,217
84252329,159,238,187,192,92,130,216
84285662,161,285,218,190,89,138,216
84318995,163,253,175,191,92,132,217
84352328,159,275,181,189,87,128,215
84385661,158,225,172,190,92,129,213
84418994,162,331,209,186,89,130,214
84452327,161,310,187,188,89,129,216
84485660,162,248,168,188,91,127,216
84518993,181,275,247,188,87,127,217
84552326,168,232,181,186,90,125,216
84585659,174,293,177,186,89,128,218
84618992,164,237,200,188,87,125,216
84652325,162,258,182,187,80,130,217
84685658,160,214,149,188,89,127,215
84718991,166,227,231,187,86,131,216
84752324,165,281,203,187,92,130,216
84785657,188,399,300,187,91,129,216
84818990,177,299,298,188,94,128,216
84852323,177,432,273,185,92,130,215
84885656,167,305,252,187,98,129,216
84918989,171,384,294,186,94,137,216
84952322,163,327,210,191,95,133,217
84985655,186,396,305,195,102,136,216
85018988,170,276,204,190,94,129,217
85052321,165,305,281,187,96,130,216
85085654,162,294,213,193,111,130,215
85118987,164,361,241,192,105,129,215
85152320,161,274,227,192,107,137,215
85185653,187,342,272,193,113,131,217
85218986,175,297,216,191,107,128,216
85252319,177,302,200,189,106,133,216
85285652,167,259,220,187,110,134,217
85318985,162,290,202,190,107,123,215
85352318,160,254,187,188,99,129,216
85385651,156,349,203,190,115,126,216
85418984,179,324,220,190,100,125,217
85452317,166,314,166,187,107,125,216
85485650,161,305,192,188,100,129,215
85518983,162,239,179,189,98,128,216
85552316,161,307,228,188,100,128,217
85585649,166,267,219,190,108,132,216
85618982,162,335,290,187,100,130,216
85652315,160,274,212,187,91,127,216
85685648,163,275,219,187,96,131,216
85718981,164,286,203,196,98,131,217
85752314,162,303,246,193,90,128,216
85785647,160,296,214,190,101,136,216
85818980,160,300,219,189,95,130,215
85852313,160,254,179,192,88,127,216
85885646,166,226,182,191,94,137,216
85918979,162,277,198,191,92,131,217
85952312,160,286,255,189,89,127,214
85985645,159,351,213,189,90,128,216
86018978,164,293,250,188,92,130,216
86052311,159,312,242,186,88,131,216
86085644,160,288,214,187,87,133,216
86118977,159,299,231,193,91,132,216
86152310,163,250,194,194,88,129,216
86185643,163,292,243,191,88,126,216
86218976,181,304,217,188,87,128,215
86252309,167,294,202,188,86,124,215
86285642,163,262,210,185,98,126,216
86318975,161,282,192,189,93,130,216
86352308,168,259,235,190,96,126,216
86385641,163,323,216,188,93,133,217
86418974,180,332,184,187,89,127,215
86452307,169,371,210,189,95,125,215
86485640,163,299,174,188,92,128,216
86518973,160,324,175,186,87,127,216
86552306,162,291,216,187,87,129,216
86585639,160,310,186,188,87,127,216
86618972,158,275,187,188,88,132,217
86652305,156,273,169,187,88,128,216
86685638,166,322,216,191,88,126,219
86718971,162,296,188,187,87,129,217
86752304,159,302,177,185,90,128,216
86785637,162,268,224,185,87,127,216
86818970,158,404,220,185,88,124,216
86852303,157,288,228,188,90,123,216
86885636,162,321,185,187,90,127,215
86918969,158,254,233,184,87,124,216
86952302,157,270,187,187,88,123,215
86985635,156,277,245,189,89,126,216
87018968,155,332,222,186,88,124,216
87052301,155,326,217,186,87,126,215
87085634,161,357,188,185,88,124,216
87118967,160,306,228,190,83,130,215
87152300,156,309,183,189,87,128,214
87185633,167,316,218,188,87,127,216
87218966,162,269,174,185,86,124,217
87252299,162,298,210,187,85,125,216
87285632,166,299,187,188,87,125,215
87318965,161,294,181,187,87,124,215
87352298,160,308,272,185,83,128,216
87385631,160,309,190,192,86,126,217
87418964,163,252,178,189,90,123,216
87452297,160,204,181,186,88,124,216
87485630,167,344,198,186,88,126,216
87518963,176,283,188,186,87,126,216
87552296,165,357,183,188,83,126,217
87585629,169,280,174,186,86,123,216
87618962,161,299,190,187,85,125,215
87652295,167,294,186,192,87,125,217
87685628,162,227,160,187,88,124,216
87718961,162,261,221,187,88,126,217
87752294,159,284,171,190,88,125,215
87785627,158,362,157,197,86,125,216
87818960,157,270,193,193,86,126,219
87852293,159,287,163,190,86,125,216
87885626,156,246,166,187,87,128,216
87918959,159,229,176,188,84,127,216
87952292,156,322,147,187,86,126,219
87985625,164,274,190,190,90,124,216
88018958,174,223,210,187,88,125,216
88052291,163,273,163,199,88,125,216
88085624,172,241,165,189,86,124,215
88118957,165,267,165,189,86,125,216
88152290,161,237,186,194,87,127,217
88185623,157,213,167,188,86,124,217
88218956,155,296,172,190,86,124,216
88252289,157,230,191,189,86,123,215
88285622,156,208,159,192,86,123,216
88318955,156,266,161,189,86,123,217
88352288,157,211,178,188,86,126,216
88385621,157,265,167,190,85,123,216
88418954,156,211,177,189,86,124,216
88452287,155,224,184,195,86,124,217
88485620,157,250,150,193,85,124,216
88518953,160,224,200,189,85,123,216
88552286,157,270,155,200,91,127,215
88585619,157,290,194,195,90,129,215
88618952,160,226,185,190,86,125,216
88652285,157,298,149,197,86,126,213
88685618,157,263,180,191,86,126,216
88718951,156,285,209,191,86,124,216
88752284,157,267,169,190,86,123,216
88785617,155,219,189,188,89,124,216
88818950,162,252,190,195,86,125,216
88852283,156,227,190,188,87,126,216
88885616,167,228,188,186,85,123,216
88918949,169,312,178,186,86,126,216
88952282,166,271,187,192,86,126,216
88985615,166,312,167,191,87,125,216
89018948,163,253,230,188,84,125,216
89052281,161,294,181,186,87,125,216
89085614,157,247,189,189,86,126,216
89118947,161,247,163,189,91,128,216
89152280,159,280,167,186,88,124,215
89185613,163,328,217,185,86,124,219
89218946,160,254,178,188,85,124,216
89252279,157,310,237,187,86,124,217
89285612,168,310,216,186,85,125,216
89318945,163,338,193,186,86,123,216
89352278,161,266,232,189,86,126,218
89385611,159,289,180,188,85,123,216
89418944,159,302,154,192,88,127,215
89452277,157,239,188,189,87,126,216
89485610,158,334,159,187,84,124,217
89518943,157,283,226,186,86,123,216
89552276,157,280,168,186,85,124,216
89585609,157,247,174,185,85,124,216
89618942,156,284,192,185,86,124,216
89652275,163,299,192,188,88,123,216
89685608,161,277,204,186,89,128,216
89718941,160,267,202,186,88,127,215
89752274,162,284,180,186,86,128,217
89785607,163,290,195,186,87,129,216
89818940,159,351,198,188,86,128,217
89852273,159,284,219,186,88,123,216
89885606,157,312,167,187,86,124,218
89918939,162,253,223,187,86,125,218
89952272,163,273,198,186,86,124,216
89985605,158,220,239,188,85,124,215
90018938,157,263,193,185,85,127,216
90052271,170,263,208,186,86,125,215
90085604,162,252,208,185,86,124,216
90118937,159,324,185,188,87,125,216
90152270,159,264,156,187,84,124,215
90185603,158,310,204,188,89,122,215
90218936,158,290,172,189,89,125,215
90252269,157,231,154,188,86,127,215
90285602,160,278,212,190,87,124,220
90318935,160,250,170,189,85,124,216
90352268,156,267,173,191,83,124,215
90385601,156,256,176,188,85,120,214
90418934,157,326,150,189,85,124,216
90452267,162,263,187,188,84,127,217
90485600,157,311,229,187,84,124,216
90518933,158,280,197,187,86,124,216
90552266,162,284,255,188,83,124,216
90585599,159,294,237,188,87,124,215
90618932,157,245,181,190,87,125,216
90652265,162,305,219,192,84,126,217
90685598,158,249,177,190,84,123,217
90718931,162,329,178,194,86,123,215
90752264,159,263,193,189,89,124,218
90785597,157,331,196,189,89,126,218
90818930,159,251,164,189,87,125,216
90852263,164,329,196,188,88,125,215
90885596,161,261,177,187,84,125,217
90918929,159,255,204,186,87,124,217
90952262,156,234,227,190,86,126,216
90985595,160,242,218,188,86,129,217
91018928,162,248,235,188,85,124,218
91052261,164,268,172,187,85,125,231
91085594,158,281,183,186,85,125,313
91118927,166,244,183,189,87,124,417
91152260,163,310,196,190,85,124,475
91185593,159,241,153,189,89,125,488
91218926,163,215,194,188,87,126,452
91252259,159,192,197,188,86,127,490
91285592,157,281,163,192,89,123,604
91318925,156,215,142,191,90,125,665
91352258,158,311,185,187,86,124,720
91385591,157,233,158,190,84,122,656
91418924,157,214,144,191,85,124,534
91452257,157,259,192,193,84,123,450
91485590,162,220,178,189,86,123,435
91518923,158,195,198,188,84,123,427
91552256,159,265,177,187,85,124,444
91585589,157,225,185,189,86,123,601
91618922,164,265,179,193,86,124,698
91652255,159,204,147,188,86,123,742
91685588,161,206,193,190,86,125,757
91718921,159,252,198,187,86,123,772
91752254,158,211,158,194,86,123,790
91785587,164,220,178,193,86,125,798
91818920,157,256,183,192,87,122,799
91852253,154,209,152,192,88,124,795
91885586,155,298,172,190,86,125,810
91918919,157,289,173,193,85,124,824
91952252,156,239,184,188,85,125,838
91985585,158,296,148,192,84,127,878
92018918,154,268,166,193,85,123,913
92052251,158,213,179,190,87,126,929
92085584,155,279,153,191,84,125,945
92118917,155,235,178,192,85,124,936
92152250,156,243,201,192,84,124,921
92185583,156,247,159,192,85,123,890
92218916,156,212,173,192,86,123,868
92252249,156,310,185,191,85,122,845
92285582,155,240,149,196,87,123,826
92318915,156,225,133,194,86,122,801
92352248,161,282,184,193,87,122,750
92385581,160,268,191,193,88,126,680
92418914,158,213,156,195,87,123,626
92452247,157,252,179,192,86,124,564
92485580,156,201,179,190,83,123,472
92518913,156,196,149,191,86,123,387
92552246,156,183,179,190,85,120,360
92585579,167,312,169,190,86,123,341
92618912,161,234,140,191,87,124,306
92652245,157,212,129,194,89,123,268
92685578,156,209,157,189,87,121,247
92718911,159,264,172,190,87,122,237
92752244,156,212,153,197,87,123,231
92785577,156,230,169,191,85,122,227
92818910,155,250,162,199,85,123,221
92852243,159,202,158,195,84,126,221
92885576,156,173,136,196,86,122,216
92918909,157,260,183,203,89,124,198
92952242,155,203,147,212,87,123,208
92985575,156,183,161,224,86,127,185
93018908,154,165,137,212,86,128,186
93052241,158,276,132,204,85,123,179
93085574,156,209,124,196,85,124,196
93118907,158,178,120,193,86,124,213
93152240,158,161,119,196,86,124,216
93185573,156,163,119,206,87,125,208
93218906,156,176,120,203,86,125,197
93252239,156,161,117,194,86,123,216
93285572,156,153,118,196,85,124,214
93318905,156,151,117,193,86,124,207
93352238,156,148,116,196,86,123,213
93385571,154,148,117,200,86,124,235
93418904,155,148,116,202,85,124,234
93452237,156,148,116,202,90,120,238
93485570,155,147,117,206,87,126,235
93518903,156,147,116,201,86,124,286
93552236,155,148,117,199,87,124,332
93585569,156,148,116,208,83,125,330
93618902,155,147,117,202,84,123,285
93652235,154,148,116,199,84,123,250
93685568,155,148,115,197,83,126,209
93718901,157,147,116,191,84,125,209
93752234,156,148,116,194,85,124,212
93785567,154,148,116,189,83,124,214
93818900,156,147,116,194,85,124,215
93852233,156,147,117,196,86,124,216
93885566,157,147,116,196,83,124,215
93918899,155,147,116,194,83,124,213
93952232,156,146,115,197,83,123,190
93985565,154,147,116,201,84,124,180
94018898,155,148,116,196,87,122,166
94052231,156,148,116,197,88,124,163
94085564,155,147,114,203,88,125,178
94118897,155,147,116,211,87,124,185
94152230,154,148,116,206,85,124,178
94185563,155,147,116,206,87,124,180
94218896,155,147,116,197,86,122,185
94252229,155,146,115,197,87,124,185
94285562,154,148,116,198,87,123,182
94318895,155,147,116,195,85,123,174
94352228,156,147,116,202,84,122,174
94385561,156,147,116,203,87,122,174
94418894,154,147,116,198,85,123,176
94452227,155,148,116,196,87,125,178
94485560,155,147,116,195,87,124,179
94518893,155,148,116,195,85,124,181
94552226,152,146,117,195,87,126,186
94585559,155,148,116,197,89,125,184
94618892,155,146,116,207,86,124,185
94652225,156,147,116,215,85,125,186
94685558,155,147,117,203,86,122,192
94718891,154,147,117,196,88,125,196
94752224,154,148,117,196,86,124,200
94785557,155,148,119,196,86,123,202
94818890,155,147,116,199,85,125,205
94852223,155,146,115,194,84,125,209
94885556,155,147,117,193,84,125,212
94918889,156,148,116,194,86,125,214
94952222,157,147,116,208,86,127,214
94985555,154,147,116,200,88,126,220
95018888,155,146,117,194,95,126,222
95052221,155,147,113,191,190,127,219
95085554,156,147,116,190,145,125,217
95118887,155,144,116,202,346,125,219
95152220,155,148,116,192,262,127,216
95185553,156,148,116,194,271,132,219
95218886,155,147,116,192,238,127,220
95252219,156,148,116,191,437,138,217
95285552,156,148,116,192,317,131,218
95318885,155,147,116,202,267,138,218
95352218,154,147,116,208,279,131,211
95385551,154,147,116,196,267,126,200
95418884,154,147,116,196,225,129,210
95452217,155,148,116,193,229,128,204
95485550,154,148,116,218,256,126,217
95518883,156,148,117,243,274,149,225
95552216,156,149,117,231,274,140,248
95585549,154,150,116,216,466,170,272
95618882,155,150,120,220,302,150,313
95652215,156,161,190,215,287,144,337
95685548,153,156,150,260,227,134,378
95718881,155,150,133,244,204,130,390
95752214,156,153,158,240,237,132,427
95785547,155,176,156,234,223,135,457
95818880,154,168,145,218,225,132,478
95852213,156,197,160,234,188,143,468
95885546,155,171,189,238,148,138,507
95918879,154,169,150,212,116,131,541
95952212,155,169,134,220,105,132,467
95985545,155,162,186,246,119,136,557
96018878,165,274,160,237,99,136,488
96052211,160,208,139,226,99,132,609
96085544,157,289,185,292,94,137,521
96118877,157,244,156,243,88,137,495
96152210,155,194,140,278,87,139,531
96185543,156,203,136,233,168,148,449
96218876,156,244,127,253,123,139,494
96252209,155,258,152,221,166,133,454
96285542,155,201,133,239,148,136,420
96318875,155,254,124,212,258,135,380
96352208,159,204,155,216,206,136,363
96385541,158,180,159,225,161,134,332
96418874,156,169,136,209,158,131,340
96452207,155,240,128,218,150,153,304
96485540,154,193,121,230,229,141,323
96518873,155,223,163,213,194,136,293
96552206,155,195,139,202,267,148,297
96585539,157,263,135,246,172,138,273
96618872,156,206,153,247,213,140,265
96652205,164,238,187,218,180,133,241
96685538,160,194,155,205,340,145,229
96718871,171,195,186,203,251,136,214
96752204,161,298,179,205,244,136,227
96785537,160,240,162,248,346,150,225
96818870,185,312,187,222,235,134,213
96852203,169,249,151,211,260,143,214
96885536,167,315,186,196,174,135,214
96918869,162,227,149,200,199,139,216
96952202,206,311,203,215,154,132,216
96985535,179,282,174,209,131,128,222
97018868,185,239,208,255,145,128,220
97052201,171,199,182,227,158,132,218
97085534,163,171,147,208,229,141,221
97118867,160,245,171,213,180,137,223
97152200,158,195,142,210,142,133,258
97185533,167,260,162,213,155,134,248
97218866,161,203,139,214,151,128,294
97252199,161,209,154,225,164,132,262
97285532,160,178,133,211,136,128,233
97318865,167,271,191,214,111,126,226
97352198,163,207,185,211,104,127,223
97385531,157,187,148,211,147,128,219
97418864,156,188,196,201,117,124,220
97452197,155,164,153,210,202,126,216
97485530,156,169,133,219,152,124,217
97518863,155,158,123,211,136,125,212
97552196,155,152,118,226,179,131,186
97585529,156,149,118,220,132,129,182
97618862,155,148,118,205,110,126,174
97652195,155,160,116,208,113,128,167
97685528,154,152,118,202,116,121,164
97718861,154,151,117,200,171,137,164
97752194,156,155,117,194,152,129,166
97785527,156,164,118,195,118,128,164
97818860,169,162,163,196,104,135,169
97852193,162,160,166,199,99,133,170
97885526,168,202,219,197,93,131,171
97918859,169,278,230,189,89,129,174
97952192,168,269,216,187,87,126,172
97985525,172,275,228,188,101,125,171
98018858,162,306,200,186,129,126,169
98052191,175,285,204,197,114,130,177
98085524,168,322,204,194,129,127,182
98118857,162,229,157,191,126,126,189
98152190,174,416,215,193,191,128,197
98185523,166,284,162,222,169,127,199
98218856,172,238,156,210,341,133,205
98252189,169,203,178,240,331,130,201
98285522,166,297,211,213,261,130,209
98318855,162,231,167,208,264,130,214
98352188,159,272,179,199,270,128,215
98385521,157,265,195,193,181,126,209
98418854,156,234,184,198,176,125,224
98452187,170,285,213,196,192,129,219
98485520,164,224,176,189,136,126,214
98518853,181,352,203,187,134,124,206
98552186,168,251,156,186,108,125,203
98585519,172,245,229,184,98,124,200
98618852,164,193,167,184,89,123,204
98652185,158,170,140,184,92,124,207
98685518,159,161,128,186,145,125,217
98718851,164,204,123,186,153,123,257
98752184,160,176,120,185,140,127,302
98785517,158,181,162,196,141,125,368
98818850,158,251,195,218,235,135,428
98852183,187,278,364,318,215,144,460
98885516,193,331,557,253,224,134,571
98918849,281,499,657,299,525,171,609
98952182,605,1135,689,257,352,156,637
98985515,496,1086,1206,348,283,144,658
99018848,498,1079,862,265,557,212,644
99052181,439,1125,871,268,562,203,667
99085514,439,1359,731,281,415,169,656
99118847,354,886,524,290,330,195,654
99152180,332,812,443,333,216,162,651
99185513,275,1029,465,406,195,177,630
99218846,379,1175,569,296,221,179,608
99252179,361,923,641,241,195,148,597
99285512,472,1092,776,234,273,157,527
99318845,361,1193,736,228,219,143,467
99352178,390,1627,995,208,167,141,408
99385511,388,1421,793,203,250,133,351
99418844,528,1431,1045,197,194,134,304
99452177,457,1409,1010,210,323,135,272
99485510,491,1233,706,216,221,125,247
99518843,438,1222,771,204,330,141,233
99552176,429,1047,648,231,205,139,226
99585509,456,951,803,207,153,132,221
99618842,412,1139,591,212,116,128,219
99652175,333,759,730,200,130,127,220
99685508,301,669,532,213,108,127,220
99718841,307,789,392,198,101,136,219
99752174,235,539,279,191,99,134,219
99785507,338,711,353,189,117,129,218
99818840,283,462,273,196,183,128,217
99852173,216,299,195,188,133,130,217
99885506,184,220,153,187,133,128,217
99918839,211,386,166,189,140,123,215
99952172,182,262,139,188,113,133,231
99985505,183,229,150,187,292,134,220
100018838,169,186,138,198,185,130,378
100052171,185,206,311,196,147,129,389
100085504,180,183,247,194,237,134,417
100118837,195,346,257,190,197,127,399
100152170,175,254,460,198,225,128,390
100185503,436,601,740,205,312,134,448
100218836,298,470,601,206,275,130,493
100252169,452,663,912,243,375,143,531
100285502,357,1147,827,358,469,162,487
100318835,879,1318,1327,376,482,167,491
100352168,673,1157,890,548,315,172,508
100385501,823,1670,1390,466,358,322,505
100418834,664,1320,946,424,292,285,539
100452167,567,1326,1434,330,406,343,517
100485500,487,1067,945,359,430,277,534
100518833,421,1005,819,380,415,271,501
100552166,297,776,721,354,346,207,502
100585499,285,950,771,350,297,280,493
100618832,278,876,677,374,276,207,486
100652165,430,1246,947,291,373,183,465
100685498,526,1382,1081,347,394,189,395
100718831,469,1519,875,272,558,163,357
100752164,549,1400,920,229,543,154,312
100785497,459,1199,783,218,729,208,284
100818830,507,1630,900,204,765,184,272
100852163,397,1283,739,198,813,195,250
100885496,311,1132,630,204,538,166,236
100918829,366,1104,776,242,540,165,228
100952162,341,881,644,235,470,162,219
100985495,388,872,820,214,389,154,217
101018828,374,775,671,242,433,154,217
101052161,359,889,654,224,564,196,217
101085494,296,658,478,214,340,166,218
101118827,311,502,411,320,293,155,214
101152160,246,338,263,249,299,149,216
101185493,199,238,185,216,296,137,212
101218826,245,227,217,199,212,130,214
101252159,198,190,165,206,187,127,214
101285492,228,319,211,211,170,126,215
101318825,191,230,161,239,208,126,209
101352158,208,258,325,298,189,125,232
101385491,181,199,214,325,237,135,252
101418824,173,173,162,330,616,186,284
101452157,164,160,138,313,415,160,310
101485490,207,321,250,330,420,156,339
101518823,180,281,180,376,348,148,365
101552156,335,493,340,394,351,152,385
101585489,241,318,224,363,226,147,385
101618822,222,429,262,299,285,169,386
101652155,201,421,230,242,182,164,419
101685488,189,456,245,241,229,147,394
101718821,176,421,230,217,172,149,365
101752154,203,456,242,216,226,153,368
101785487,198,487,208,275,154,155,365
101818820,178,454,237,240,414,166,345
101852153,179,494,300,227,245,152,337
101885486,184,453,265,252,232,153,319
101918819,182,482,252,281,210,145,344
101952152,191,386,218,237,363,156,329
101985485,189,327,207,260,505,200,371
102018818,210,503,262,243,346,180,339
102052151,224,502,289,246,362,166,403
102085484,200,430,326,238,479,166,329
102118817,483,576,1273,300,451,200,328
102152150,360,659,708,369,772,205,297
102185483,405,851,769,319,422,168,353
102218816,565,900,1089,276,357,148,329
102252149,470,1190,1116,310,278,209,295
102285482,414,1411,1154,286,297,217,316
102318815,513,1394,1167,299,221,185,278
102352148,418,923,1136,267,649,210,283
102385481,519,1109,1127,313,439,192,308
102418814,489,1175,1200,531,896,217,282
102452147,403,1355,979,446,830,224,273
102485480,410,1087,860,310,1206,228,261
102518813,451,1384,894,257,891,191,243
102552146,341,942,772,224,1527,233,227
102585479,270,955,654,253,988,183,218
102618812,313,1056,736,227,931,186,208
102652145,243,844,499,205,548,163,205
102685478,284,789,508,197,502,155,195
102718811,244,644,409,197,357,147,204
102752144,210,490,262,189,217,138,209
102785477,183,311,186,190,186,135,208
102818810,167,226,148,203,150,129,211
102852143,179,284,153,210,118,126,211
102885476,168,212,134,201,139,124,202
102918809,161,192,126,231,112,129,208
102952142,162,261,166,229,104,126,199
102985475,187,297,169,249,93,124,198
103018808,167,220,145,262,95,125,207
103052141,215,565,524,295,97,125,234
103085474,217,478,374,320,94,128,234
103118807,220,459,265,318,90,130,249
103152140,300,437,355,287,94,130,255
103185473,312,599,701,317,90,129,257
103218806,278,500,487,282,90,149,260
103252139,300,554,386,267,87,139,253
103285472,250,572,635,225,159,195,246
103318805,231,592,465,224,158,178,236
103352138,276,739,507,269,165,195,234
103385471,245,819,565,228,126,159,235
103418804,216,648,615,259,128,162,226
103452137,263,744,523,231,250,151,232
103485470,259,710,532,217,206,145,222
103518803,280,714,531,247,411,152,233
103552136,264,711,464,219,304,159,326
103585469,216,667,438,228,345,150,362
103618802,221,629,497,205,261,161,466
103652135,255,770,553,210,183,142,405
103685468,272,689,581,211,185,142,374
103718801,265,811,692,217,156,133,497
103752134,247,619,536,235,131,129,473
103785467,270,727,819,276,136,146,409
103818800,267,804,1075,275,406,166,642
103852133,352,863,1064,270,241,144,572
103885466,552,1205,1333,289,213,147,499
103918799,566,1304,1256,289,402,229,605
103952132,496,901,1010,304,436,183,535
103985465,563,1828,1299,299,475,178,468
104018798,523,1713,1100,348,493,184,463
104052131,606,2429,1192,288,388,219,408
104085464,446,1799,1325,258,725,272,376
104118797,390,1656,1044,263,943,201,325
104152130,700,1328,999,230,708,171,302
104185463,524,1248,1036,218,618,154,269
104218796,406,983,743,216,611,172,246
104252129,297,812,882,228,565,168,231
104285462,288,1213,604,210,713,165,223
104318795,256,755,499,221,585,155,220
104352128,315,784,572,203,619,154,215
104385461,271,652,586,194,483,150,217
104418794,259,712,474,196,497,150,216
104452127,220,522,499,191,297,140,217
104485460,196,409,360,209,226,137,216
104518793,194,387,323,197,228,131,217
104552126,331,397,284,197,151,130,214
104585459,244,309,337,192,130,132,213
104618792,198,225,219,219,106,130,204
104652125,176,185,218,204,100,128,209
104685458,207,345,413,226,94,125,209
104718791,186,243,261,263,124,128,210
104752124,283,340,259,273,104,125,209
104785457,217,306,216,291,124,124,215
104818790,249,369,201,324,119,128,225
104852123,247,493,210,336,114,127,234
104885456,243,544,509,282,225,127,247
104918789,313,585,731,301,152,137,261
104952122,325,981,923,282,208,135,272
104985455,322,823,857,237,229,135,269
105018788,394,934,895,212,211,157,276
105052121,335,939,986,215,210,147,256
105085454,249,938,717,205,297,190,251
105118787,293,882,1153,228,197,156,243
105152120,370,971,1049,274,206,161,227
105185453,329,875,1076,247,264,144,219
105218786,390,1411,948,225,271,133,216
105252119,345,1110,685,324,277,131,214
105285452,442,1289,866,254,280,139,209
105318785,455,1271,986,220,395,157,213
105352118,451,1333,920,206,419,171,218
105385451,367,1141,595,201,377,159,213
105418784,517,1298,792,204,379,166,233
105452117,537,1229,722,198,264,149,224
105485450,637,1088,826,201,251,140,220
105518783,821,1877,971,225,288,139,215
105552116,1235,2215,1524,278,280,134,233
105585449,1091,1749,1337,328,275,157,243
105618782,709,1393,1084,309,469,183,229
105652115,658,1366,936,257,273,154,224
105685448,510,1179,736,218,242,152,221
105718781,401,1176,662,199,213,144,217
105752114,334,885,498,194,280,143,218
105785447,249,655,404,186,220,134,218
105818780,238,680,284,188,205,132,218
105852113,196,459,228,189,214,134,217
105885446,193,392,191,209,228,134,215
105918779,196,290,160,201,153,133,214
105952112,175,216,136,210,168,132,215
105985445,266,455,228,211,250,137,210
106018778,208,292,167,210,234,130,214
106052111,264,270,224,210,222,128,245
106085444,213,218,232,206,288,129,275
106118777,240,432,223,201,257,136,290
106152110,318,557,886,200,298,133,286
106185443,360,583,600,202,234,138,299
106218776,347,655,919,215,357,136,353
106252109,313,471,947,236,624,180,374
106285442,446,934,878,246,575,190,388
106318775,678,900,822,220,468,182,403
106352108,572,674,687,206,843,225,417
106385441,390,630,780,397,592,176,418
106418774,479,1138,779,304,491,157,411
106452107,528,1134,850,286,493,147,406
106485440,504,1432,1026,269,552,145,365
106518773,420,1315,775,377,442,135,343
106552106,458,1171,1029,495,605,148,306
106585439,372,927,1033,450,702,186,272
106618772,312,872,832,337,555,176,250
106652105,414,689,761,346,577,171,235
106685438,392,919,802,262,421,164,226
106718771,293,860,551,283,409,150,223
106752104,265,907,469,290,579,190,222
106785437,280,694,359,281,419,165,217
106818770,376,857,429,274,442,166,216
106852103,264,526,282,264,323,161,217
106885436,360,809,600,276,333,152,217
106918769,339,592,395,246,408,158,218
106952102,374,866,425,227,273,145,218
106985435,328,734,370,244,297,151,219
107018768,359,809,527,233,270,144,219
107052101,280,597,506,224,350,146,219
107085434,307,697,426,210,387,158,219
107118767,257,511,365,205,349,165,218
107152100,295,643,340,209,330,156,217
107185433,264,597,275,197,267,153,216
107218766,301,785,314,190,208,140,217
107252099,261,636,299,187,268,150,215
107285432,237,741,350,186,247,152,217
107318765,232,687,355,184,190,141,215
107352098,208,590,343,186,147,138,216
107385431,327,596,336,189,183,134,214
107418764,270,741,391,187,134,131,215
107452097,234,556,292,187,111,133,215
107485430,244,865,474,187,165,129,215
107518763,343,640,352,198,124,128,214
107552096,275,658,371,190,104,127,214
107585429,295,600,381,194,151,129,212
107618762,258,544,314,188,118,128,213
107652095,266,597,329,192,145,127,214
107685428,213,569,238,187,146,121,215
107718761,239,559,220,187,117,124,215
107752094,230,612,257,189,100,131,217
107785427,279,619,272,186,122,126,216
107818760,234,680,267,186,117,124,216
107852093,229,616,233,203,102,126,215
107885426,200,653,287,193,92,123,217
107918759,282,524,292,191,87,124,215
107952092,254,568,340,188,83,123,215
107985425,261,637,395,197,86,125,214
108018758,233,464,330,197,87,122,215
108052091,370,619,310,194,87,122,211
108085424,274,497,278,196,86,125,209
108118757,319,699,316,197,83,125,210
108152090,275,481,253,195,83,123,212
108185423,270,710,218,202,87,137,210
108218756,255,596,291,195,88,130,209
108252089,250,569,272,191,85,128,209
108285422,251,589,257,198,86,126,200
108318755,223,471,340,196,82,123,191
108352088,231,640,241,195,84,124,183
108385421,266,628,327,192,83,124,192
108418754,257,597,274,189,84,122,190
108452087,236,589,260,189,87,123,182
108485420,232,584,252,190,84,123,180
108518753,217,444,244,201,83,123,179
108552086,240,494,278,194,83,123,174
108585419,243,516,284,190,86,124,173
108618752,212,692,267,186,83,123,167
108652085,199,524,350,184,85,123,168
108685418,190,498,309,185,86,124,168
108718751,173,510,281,196,85,123,168
108752084,179,413,330,192,85,123,170
108785417,174,466,308,187,85,123,172
108818750,169,445,283,186,88,124,168
108852083,178,427,265,184,86,122,172
108885416,174,315,239,190,87,122,162
108918749,180,492,243,186,86,124,166
108952082,181,420,248,188,85,124,170
108985415,174,372,201,186,86,122,167
109018748,181,398,262,185,85,122,159
109052081,183,327,204,185,85,125,163
109085414,211,381,310,183,83,122,170
109118747,185,422,220,185,85,126,188
