time
,EMG0,EMG1,EMG2,EMG3,EMG4,EMG5,EMG669838202,43,71,54,54,25,31,220
69888202,44,105,39,56,41,31,212
69938202,42,68,47,50,28,30,206
69988202,61,89,54,48,24,30,201
70038202,47,79,49,49,30,31,194
70088202,49,62,43,49,24,32,188
70138202,50,74,59,51,22,31,187
70188202,43,72,43,52,23,30,184
70238202,46,71,42,49,22,33,179
70288202,41,62,65,51,20,32,174
70338202,44,52,48,48,21,31,172
70388202,42,50,51,48,21,31,164
70438202,43,76,41,47,21,31,157
70488202,45,81,58,49,21,30,155
70538202,40,57,40,47,21,32,152
70588202,50,89,53,46,21,31,149
70638202,63,100,70,46,21,31,142
70688202,64,88,52,46,21,30,134
70738202,60,69,48,48,22,31,125
70788202,146,86,57,73,50,32,117
70838202,160,105,82,71,98,35,113
70888202,77,59,45,387,64,32,117
70938202,51,45,34,318,38,32,134
70988202,42,39,31,166,27,31,181
71038202,40,37,29,126,23,33,149
71088202,38,37,33,89,23,38,145
71138202,38,41,30,168,23,40,119
71188202,38,38,29,188,25,36,146
71238202,55,38,44,109,59,35,168
71288202,48,38,50,253,65,34,166
71338202,88,139,246,252,178,38,150
71388202,195,160,265,227,189,41,139
71438202,138,132,145,262,179,47,124
71488202,82,76,76,249,121,47,151
71538202,110,73,64,180,56,40,145
71588202,66,51,43,118,33,38,115
71638202,105,92,83,80,28,37,100
71688202,66,79,60,67,25,33,98
71738202,76,61,55,58,25,34,85
71788202,162,63,69,52,25,36,87
71838202,181,52,68,54,23,35,82
71888202,124,48,72,89,24,34,76
71938202,181,47,82,62,26,36,73
71988202,230,60,128,111,29,44,83
72038202,106,48,65,102,28,46,89
72088202,73,46,48,105,25,40,74
72138202,61,82,93,97,22,36,71
72188202,139,169,246,80,27,45,71
72238202,82,133,128,258,59,51,128
72288202,85,148,145,346,179,54,108
72338202,105,142,165,340,286,56,113
72388202,108,124,199,229,287,72,137
72438202,179,328,253,221,174,60,152
72488202,108,195,133,252,274,75,136
72538202,69,135,73,217,156,55,113
72588202,65,125,103,158,134,54,105
72638202,47,73,53,128,150,72,86
72688202,61,97,90,128,93,51,92
72738202,195,203,218,595,185,80,200
72788202,355,591,461,921,536,109,342
72838202,541,732,766,921,716,162,291
72888202,293,391,403,921,648,191,317
72938202,142,161,151,921,275,95,576
72988202,183,82,95,605,111,54,480
73038202,180,64,176,276,289,69,337
73088202,93,54,101,142,131,57,256
73138202,153,105,251,378,199,95,195
73188202,138,123,143,710,372,93,182
73238202,279,290,349,388,359,105,239
73288202,522,552,363,679,205,68,244
73338202,363,463,421,673,387,178,353
73388202,258,326,270,445,165,90,291
73438202,278,330,251,360,122,63,226
73488202,220,220,142,267,83,46,180
73538202,166,218,161,180,316,94,152
73588202,83,128,80,151,134,54,126
73638202,73,102,56,365,61,41,147
73688202,243,233,189,703,266,55,147
73738202,555,690,592,916,260,63,219
73788202,565,746,921,922,685,184,186
73838202,497,689,552,921,486,132,178
73888202,356,273,238,921,198,75,221
73938202,222,182,166,501,235,62,155
73988202,164,130,197,230,161,52,111
74038202,169,164,172,162,206,46,90
74088202,118,115,145,422,145,43,78
74138202,141,199,209,522,340,83,74
74188202,272,202,288,459,278,76,70
74238202,729,578,631,245,196,75,103
74288202,559,296,382,173,203,101,87
74338202,675,382,463,203,286,110,93
74388202,363,184,205,198,139,71,76
74438202,165,156,105,141,160,72,70
74488202,114,77,60,249,199,98,68
74538202,64,53,38,267,118,70,66
74588202,46,43,32,485,224,83,70
74638202,41,43,36,367,127,69,67
74688202,39,38,31,282,167,89,66
74738202,39,37,29,162,171,77,67
74788202,38,37,29,108,130,68,66
74838202,38,41,29,90,81,46,80
74888202,39,41,30,82,57,41,74
74938202,41,44,31,75,96,33,78
74988202,41,39,29,61,54,32,77
75038202,42,37,35,53,76,31,71
75088202,50,38,32,58,51,33,71
75138202,47,37,35,59,32,31,92
75188202,42,37,32,64,24,30,86
75238202,39,45,77,59,22,32,96
75288202,45,70,88,127,25,32,143
75338202,52,68,79,153,101,50,152
75388202,61,88,98,171,278,60,189
75438202,96,190,210,186,457,62,190
75488202,124,181,198,130,285,49,171
75538202,102,136,144,143,381,55,149
75588202,117,85,86,155,421,71,143
75638202,175,134,165,131,254,58,118
75688202,85,68,71,169,233,59,89
75738202,66,49,70,156,214,51,76
75788202,48,41,42,139,128,45,70
75838202,41,38,33,142,252,62,77
75888202,39,37,30,312,147,49,75
75938202,38,38,30,509,171,51,102
75988202,47,57,42,228,128,57,83
76038202,41,56,36,196,59,42,78
76088202,39,49,32,107,34,37,87
76138202,39,42,30,83,32,35,74
76188202,38,38,30,69,26,34,70
76238202,38,38,29,55,28,33,65
76288202,38,37,29,52,25,31,64
76338202,38,37,29,53,23,32,65
76388202,39,37,29,53,22,32,65
76438202,39,37,29,49,21,30,63
76488202,38,37,29,48,24,33,64
76538202,38,36,29,48,23,32,65
76588202,38,36,29,46,21,31,73
76638202,82,44,63,57,21,31,107
76688202,56,74,69,60,22,30,109
76738202,60,92,73,54,59,44,174
76788202,57,79,90,71,199,49,176
76838202,71,80,58,84,157,44,134
76888202,56,51,72,88,85,36,102
76938202,50,73,90,101,57,39,94
76988202,56,97,144,104,126,36,95
77038202,61,132,161,110,150,41,91
77088202,91,112,152,90,248,57,76
77138202,77,63,70,88,157,42,70
77188202,54,63,49,73,164,41,67
77238202,47,46,35,77,86,37,63
77288202,41,42,31,88,106,34,56
77338202,46,60,84,81,115,41,60
77388202,41,48,46,77,103,35,62
77438202,40,45,34,59,52,32,92
77488202,39,40,32,51,31,31,143
77538202,38,37,30,100,24,31,106
77588202,38,37,29,66,22,33,84
77638202,39,36,29,56,22,33,74
77688202,38,36,29,64,21,31,75
77738202,38,36,28,88,21,32,69
77788202,42,36,28,90,21,31,67
77838202,39,36,27,108,21,30,68
77888202,39,36,29,71,21,30,81
77938202,38,36,29,61,21,30,75
77988202,38,36,28,50,23,31,70
78038202,38,37,28,47,22,30,68
78088202,38,36,28,47,21,30,67
78138202,38,36,28,46,21,30,66
78188202,38,36,28,46,21,30,66
78238202,47,36,30,46,26,31,66
78288202,54,36,34,46,24,30,66
78338202,87,36,33,46,25,30,66
78388202,132,38,65,46,24,30,66
78438202,90,37,43,46,24,30,66
78488202,86,37,44,47,24,32,66
78538202,54,38,34,51,22,30,66
78588202,43,37,31,49,21,31,96
78638202,41,54,58,50,21,31,82
78688202,92,104,150,74,32,32,103
78738202,93,178,160,68,149,35,85
78788202,85,186,184,99,171,49,81
78838202,71,116,106,86,159,49,72
78888202,59,110,66,90,136,47,68
78938202,45,61,40,86,199,54,67
78988202,43,48,42,113,139,50,66
79038202,98,85,75,103,129,42,65
79088202,58,52,43,95,57,34,65
79138202,45,41,33,71,35,33,65
79188202,41,38,30,80,69,35,64
79238202,39,37,29,76,37,33,67
79288202,38,37,29,91,31,33,73
79338202,46,38,29,201,36,32,88
79388202,41,39,29,344,26,33,103
79438202,39,37,29,176,23,35,86
79488202,39,37,31,103,22,32,77
79538202,38,42,31,70,22,32,70
79588202,39,43,31,61,22,34,89
79638202,42,40,31,55,21,32,91
79688202,44,37,30,52,21,32,81
79738202,54,36,30,52,21,34,72
79788202,44,37,29,57,22,32,68
79838202,40,36,29,94,23,30,66
79888202,38,40,29,76,25,31,74
79938202,38,39,29,64,24,31,70
79988202,38,42,30,55,32,31,69
80038202,41,58,33,60,25,31,94
80088202,39,51,41,63,22,30,188
80138202,65,138,100,61,61,56,140
80188202,86,336,215,78,109,50,162
80238202,79,255,244,66,111,47,229
80288202,67,129,143,113,84,45,326
80338202,48,67,66,100,93,42,282
80388202,44,47,42,143,79,35,228
80438202,40,40,33,141,145,36,196
80488202,39,37,30,184,110,34,205
80538202,39,37,29,560,67,32,257
80588202,39,36,29,353,41,32,268
80638202,44,36,28,201,27,34,229
80688202,40,36,29,101,24,36,171
80738202,86,37,39,69,22,36,122
80788202,81,42,60,56,28,35,90
80838202,52,38,40,55,31,32,77
80888202,42,37,32,60,27,31,66
80938202,40,37,30,61,26,30,65
80988202,39,36,32,89,23,30,104
81038202,39,65,55,63,34,32,196
81088202,44,79,79,63,78,40,141
81138202,102,155,126,81,231,65,132
81188202,102,174,116,77,225,63,180
81238202,74,169,109,111,364,62,233
81288202,58,135,91,76,224,78,194
81338202,89,74,54,82,202,117,165
81388202,70,50,37,75,207,72,136
81438202,49,41,31,154,162,55,121
81488202,42,38,29,289,83,39,114
81538202,39,37,29,570,55,34,115
81588202,38,37,28,289,35,31,96
81638202,38,36,29,134,25,34,73
81688202,69,37,43,76,22,33,64
81738202,87,37,54,58,22,34,62
81788202,76,39,54,51,21,32,67
81838202,52,37,38,53,21,31,68
81888202,43,36,32,50,21,30,82
81938202,40,36,29,47,29,31,108
81988202,39,45,56,46,124,38,194
82038202,49,92,108,50,74,33,170
82088202,86,120,133,70,182,54,159
82138202,80,162,104,68,247,60,142
82188202,69,166,108,79,157,53,193
82238202,49,102,81,85,67,37,165
82288202,42,58,45,71,60,33,157
82338202,114,44,33,59,45,31,124
82388202,111,39,31,106,67,32,122
82438202,62,36,29,151,67,31,148
82488202,49,37,28,225,41,33,163
82538202,44,36,29,119,28,45,160
82588202,42,37,30,70,23,45,135
82638202,73,37,51,54,22,37,97
82688202,81,39,85,51,25,39,80
82738202,52,40,53,55,26,33,71
82788202,43,37,37,51,23,32,71
82838202,40,37,32,53,22,31,70
82888202,39,40,45,48,22,32,105
82938202,39,74,65,47,54,31,260
82988202,42,98,60,50,39,35,161
83038202,128,171,182,81,185,48,154
83088202,101,159,131,70,146,46,171
83138202,62,119,123,83,149,53,197
83188202,46,66,60,82,67,39,188
83238202,41,47,41,75,53,35,222
83288202,40,40,33,103,83,35,190
83338202,38,38,30,147,121,33,192
83388202,39,37,29,182,86,34,225
83438202,38,36,29,164,45,85,208
83488202,38,36,29,174,29,135,187
83538202,38,36,29,91,24,78,141
83588202,81,45,63,66,23,66,97
83638202,133,46,130,56,25,62,79
83688202,94,44,94,54,31,54,73
83738202,60,39,53,52,25,41,73
83788202,45,37,36,55,22,38,74
83838202,41,36,31,57,23,41,79
83888202,39,42,58,67,21,38,205
83938202,40,71,71,62,56,53,187
83988202,97,109,96,76,156,60,155
84038202,84,175,123,81,418,80,134
84088202,87,151,135,66,196,53,163
84138202,86,104,78,61,135,91,141
84188202,57,60,45,59,61,114,145
84238202,45,45,35,88,39,98,160
84288202,41,39,30,119,88,63,139
84338202,40,37,29,212,135,87,178
84388202,39,36,28,249,65,89,202
84438202,40,36,28,238,37,62,195
84488202,38,37,30,114,28,48,165
84538202,59,38,49,73,23,38,112
84588202,94,38,58,57,22,42,87
84638202,67,38,60,53,32,41,71
84688202,67,37,39,62,25,75,68
84738202,52,36,32,60,24,101,66
84788202,43,36,29,68,22,60,71
84838202,40,44,53,61,22,42,105
84888202,44,93,74,64,49,37,197
84938202,106,122,93,83,45,43,168
84988202,129,103,116,87,113,51,218
85038202,101,144,128,107,98,50,286
85088202,86,210,192,174,52,38,245
85138202,54,94,81,183,35,33,196
85188202,43,56,46,116,28,32,151
85238202,71,44,36,135,26,31,109
85288202,50,45,52,195,25,32,92
85338202,53,60,76,260,26,36,94
85388202,46,44,45,288,40,66,78
85438202,49,70,120,250,49,78,72
85488202,46,68,111,132,60,65,105
85538202,43,55,104,87,57,57,90
85588202,43,43,53,65,57,64,79
85638202,40,40,38,55,54,55,77
85688202,39,39,34,58,67,46,84
85738202,39,37,30,78,41,38,75
85788202,38,37,29,57,31,37,86
85838202,39,36,28,49,39,42,88
85888202,38,37,45,46,64,38,79
85938202,40,45,46,50,52,35,102
85988202,40,57,72,55,35,33,92
86038202,38,51,45,57,27,33,127
86088202,41,63,72,57,24,31,117
86138202,54,115,108,72,44,45,149
86188202,70,157,122,61,155,52,260
86238202,92,145,131,89,158,52,234
86288202,75,72,62,77,152,47,176
86338202,51,48,39,82,172,46,147
86388202,42,40,32,101,104,40,131
86438202,40,38,30,224,70,36,135
86488202,39,37,29,338,79,34,154
86538202,38,37,29,596,42,31,128
86588202,48,37,28,364,28,46,104
86638202,41,37,29,151,23,45,78
86688202,51,37,53,80,22,38,71
86738202,77,38,63,58,23,40,68
86788202,51,37,41,57,21,34,82
86838202,42,36,33,53,21,32,72
86888202,40,36,30,49,21,31,68
86938202,38,36,29,47,23,31,67
86988202,38,41,29,46,29,31,105
87038202,39,93,60,47,37,31,171
87088202,50,80,62,50,27,31,132
87138202,52,130,76,65,71,46,166
87188202,61,170,129,81,124,56,117
87238202,68,133,138,63,113,43,90
87288202,51,78,99,72,98,35,77
87338202,42,75,65,60,69,32,71
87388202,94,49,40,65,38,31,68
87438202,63,41,32,68,56,30,67
87488202,49,38,30,69,42,30,67
87538202,42,40,58,126,29,30,66
87588202,40,38,43,96,28,38,65
87638202,39,43,91,90,24,40,65
87688202,41,43,71,62,22,41,65
87738202,47,48,54,51,21,37,65
87788202,47,40,40,50,22,42,65
87838202,41,38,33,48,21,34,64
87888202,39,37,30,48,21,32,68
87938202,38,37,30,48,24,32,62
87988202,38,36,29,47,25,31,64
88038202,38,36,28,46,93,31,76
88088202,39,41,57,45,105,35,119
88138202,41,74,75,49,84,34,109
88188202,65,132,89,62,44,31,117
88238202,51,125,69,65,107,43,115
88288202,49,88,58,60,164,46,137
88338202,45,99,56,54,98,41,114
88388202,50,66,44,58,74,35,90
88438202,43,94,60,65,78,35,92
88488202,41,56,39,58,52,32,82
88538202,39,44,32,63,31,31,73
88588202,38,39,30,58,26,30,68
88638202,39,37,29,101,24,30,70
88688202,41,41,102,117,22,31,65
88738202,40,43,86,71,21,34,64
88788202,39,42,71,59,21,39,60
88838202,40,39,67,51,21,36,63
88888202,40,37,42,50,21,40,63
88938202,38,37,33,52,25,33,64
88988202,39,36,30,66,22,32,57
89038202,39,36,30,76,22,32,62
89088202,38,44,45,90,23,31,93
89138202,43,80,69,102,47,31,87
89188202,49,141,75,92,171,46,92
89238202,45,79,61,90,183,62,83
89288202,57,111,60,76,183,84,74
89338202,53,70,42,85,230,83,70
89388202,60,103,67,84,158,78,67
89438202,50,114,83,80,148,74,66
89488202,48,69,47,78,125,72,66
89538202,42,49,35,93,148,64,80
89588202,46,65,43,80,139,67,102
89638202,49,55,40,71,103,61,102
89688202,41,53,32,93,112,58,84
89738202,39,41,30,62,81,52,80
89788202,38,40,29,55,100,51,74
89838202,39,37,29,66,78,43,70
89888202,38,37,29,56,107,42,68
89938202,38,37,29,50,59,35,67
89988202,38,36,29,48,37,34,66
90038202,38,36,29,67,26,33,66
90088202,38,36,28,60,22,32,62
90138202,42,36,29,54,22,31,60
90188202,41,36,29,49,23,31,62
90238202,40,36,29,49,22,31,64
90288202,40,41,40,49,22,31,64
90338202,47,69,65,48,21,33,64
90388202,55,98,64,46,21,34,64
90438202,48,79,52,53,20,31,60
90488202,41,50,36,58,21,31,63
90538202,40,51,33,50,21,31,64
90588202,39,46,39,47,21,31,64
90638202,41,73,47,50,21,30,65
90688202,49,70,44,47,21,30,65
90738202,48,66,49,47,21,30,65
90788202,42,80,51,50,21,30,65
90838202,44,60,73,54,22,29,65
90888202,44,69,56,48,21,29,65
90938202,43,61,50,46,21,30,65
90988202,50,88,64,46,21,29,65
91038202,49,107,70,45,20,29,65
91088202,48,129,61,46,21,30,65
91138202,48,80,64,45,21,30,64
91188202,42,80,50,45,21,29,65
91238202,43,107,72,46,21,29,65
91288202,42,104,68,45,21,29,64
91338202,43,99,56,45,21,29,65
91388202,41,84,44,46,20,29,64
91438202,42,76,65,53,21,29,89
91488202,41,64,42,48,22,30,269
91538202,49,81,57,46,21,30,493
91588202,42,59,56,47,21,30,469
91638202,43,80,39,48,21,30,278
91688202,45,53,36,52,21,30,194
91738202,41,75,33,49,20,30,166
91788202,39,56,50,48,21,30,160
91838202,44,67,48,50,21,29,160
91888202,41,57,53,47,20,31,141
91938202,41,70,43,47,21,30,138
91988202,50,88,61,53,21,30,141
92038202,42,54,40,49,21,30,114
92088202,41,65,58,48,21,30,92
92138202,40,74,60,48,22,30,97
92188202,39,69,47,47,21,30,93
92238202,42,53,44,49,21,30,77
92288202,42,46,64,48,21,30,219
92338202,40,49,43,46,21,30,231
92388202,45,74,61,46,21,30,146
92438202,43,76,60,46,20,30,116
92488202,44,98,65,45,21,30,131
92538202,48,111,70,45,21,29,115
92588202,43,94,70,45,20,30,95
92638202,42,80,61,45,21,30,77
92688202,53,106,70,45,20,30,71
92738202,47,89,61,46,21,30,74
92788202,56,93,71,61,22,30,63
92838202,60,112,73,50,28,30,60
92888202,57,102,95,47,34,29,61
92938202,62,130,94,48,30,31,62
92988202,46,78,50,52,24,30,63
93038202,41,50,35,58,22,30,64
93088202,39,41,31,51,21,30,65
93138202,38,38,29,54,22,30,63
93188202,38,37,29,49,26,31,65
93238202,42,37,30,48,27,31,65
93288202,45,37,30,47,29,30,65
93338202,44,37,32,47,34,31,72
93388202,70,38,62,47,25,29,73
93438202,58,38,46,46,24,31,62
93488202,45,36,38,47,22,30,57
93538202,40,37,32,48,24,30,68
93588202,40,40,41,58,22,30,70
93638202,61,74,78,53,122,32,70
93688202,48,85,79,131,273,38,79
93738202,102,89,72,131,332,45,73
93788202,75,58,54,79,224,51,97
93838202,86,172,72,79,189,41,80
93888202,102,141,119,76,126,40,73
93938202,99,108,103,65,174,51,68
93988202,287,118,89,69,146,56,77
94038202,223,111,83,65,168,76,72
94088202,114,89,58,87,175,76,69
94138202,199,91,69,62,206,87,66
94188202,145,108,66,57,142,59,65
94238202,88,126,53,52,104,49,65
94288202,72,121,65,51,119,55,65
94338202,50,71,41,76,122,45,65
94388202,42,48,32,145,86,37,64
94438202,40,40,30,274,63,34,64
94488202,39,38,29,175,35,32,57
94538202,49,38,29,117,26,30,60
94588202,60,37,30,69,23,34,62
94638202,86,37,37,54,22,33,64
94688202,98,39,48,50,23,32,64
94738202,63,39,41,50,26,31,65
94788202,48,37,37,48,26,32,74
94838202,49,38,33,46,24,32,110
94888202,45,37,30,47,24,33,87
94938202,40,37,29,47,22,32,75
94988202,39,41,29,48,22,30,121
95038202,38,47,32,51,21,31,173
95088202,39,42,30,49,21,36,129
95138202,57,81,67,61,62,51,105
95188202,83,164,123,72,187,65,97
95238202,90,215,178,78,213,54,108
95288202,68,118,100,90,176,44,107
95338202,180,64,54,85,220,54,117
95388202,123,45,36,90,94,38,97
95438202,66,39,31,73,63,33,112
95488202,48,37,30,70,51,30,130
95538202,41,37,29,85,77,30,213
95588202,39,36,28,153,86,32,220
95638202,38,36,28,207,44,36,189
95688202,38,37,28,153,29,36,151
95738202,50,36,29,99,24,37,119
95788202,42,36,29,63,22,41,90
95838202,48,36,33,52,21,35,77
95888202,62,37,41,51,22,31,70
95938202,48,37,38,50,21,30,67
95988202,42,36,32,48,21,30,68
96038202,39,36,30,62,21,30,72
96088202,38,36,29,57,21,31,113
96138202,39,47,52,59,25,30,175
96188202,38,53,39,63,25,32,129
96238202,52,91,66,82,110,65,98
96288202,54,105,89,113,303,69,158
96338202,55,91,148,176,153,48,130
96388202,44,55,66,99,65,36,110
96438202,42,42,41,85,36,32,144
96488202,63,38,32,81,26,30,96
96538202,59,37,30,84,23,30,91
96588202,45,36,29,136,25,30,110
96638202,40,36,29,247,25,30,111
96688202,44,37,28,225,25,39,99
96738202,40,36,28,156,22,38,88
96788202,39,36,29,86,21,37,74
96838202,58,36,43,60,23,44,71
96888202,94,41,76,54,22,39,68
96938202,57,38,46,52,21,34,66
96988202,45,37,34,53,20,32,67
97038202,40,36,30,49,21,31,60
97088202,39,36,29,47,21,31,84
97138202,38,43,43,50,38,31,175
97188202,41,59,45,106,52,32,182
97238202,76,117,102,97,38,40,154
97288202,72,125,92,110,177,75,138
97338202,64,154,142,219,198,61,231
97388202,64,119,105,230,130,41,201
97438202,47,64,53,116,90,35,168
97488202,73,45,37,86,48,33,199
97538202,64,41,34,80,42,32,204
97588202,47,37,31,99,102,35,185
97638202,41,37,29,183,87,34,196
97688202,39,37,28,317,50,31,218
97738202,38,37,28,357,32,39,223
97788202,38,36,28,169,24,43,207
97838202,46,37,30,87,22,45,137
97888202,94,37,40,65,22,42,99
97938202,63,37,45,67,22,34,81
97988202,47,37,35,59,28,32,73
98038202,41,36,31,55,26,32,68
98088202,39,36,29,50,22,31,67
98138202,38,37,30,48,36,31,149
98188202,38,37,45,51,39,34,166
98238202,57,82,59,51,37,38,158
98288202,77,150,117,70,162,60,209
98338202,96,170,162,77,289,62,140
98388202,82,178,225,98,170,49,106
98438202,54,136,116,78,71,37,83
98488202,43,69,56,64,39,33,73
98538202,40,48,37,77,37,32,67
98588202,39,40,31,114,131,33,64
98638202,39,37,29,144,82,32,89
98688202,38,37,29,336,47,33,103
98738202,38,36,28,165,30,52,103
98788202,38,36,29,114,24,48,95
98838202,69,36,62,70,23,44,73
98888202,116,40,69,59,22,47,69
98938202,70,39,68,55,23,38,67
98988202,48,37,42,56,24,32,66
99038202,42,39,33,53,23,32,74
99088202,40,37,30,49,21,31,69
99138202,39,49,43,47,85,33,111
99188202,40,71,77,51,113,33,172
99238202,134,116,100,58,87,39,147
99288202,146,149,115,72,165,51,185
99338202,107,193,156,75,189,56,170
99388202,74,134,144,72,124,46,147
99438202,50,69,65,61,57,35,108
99488202,42,47,40,71,33,32,107
99538202,45,40,32,66,89,32,109
99588202,40,37,30,112,52,32,133
99638202,40,37,29,205,50,33,162
99688202,38,36,28,235,30,44,152
99738202,38,36,29,178,24,61,125
99788202,40,37,42,93,23,51,101
99838202,90,38,57,61,22,59,80
99888202,77,40,64,55,22,48,72
99938202,51,38,40,60,21,36,69
99988202,42,38,32,55,21,33,102
100038202,40,37,30,50,21,31,82
100088202,39,45,30,47,21,32,90
100138202,38,45,54,49,43,32,172
100188202,43,76,65,55,36,43,136
100238202,106,143,90,86,119,50,205
100288202,104,177,90,89,269,64,182
100338202,115,146,129,63,173,53,184
100388202,76,97,113,62,71,38,141
100438202,50,56,56,58,38,33,137
100488202,52,43,37,76,26,31,126
100538202,43,39,32,82,22,30,124
100588202,40,37,30,145,64,30,152
100638202,44,36,29,240,38,31,168
100688202,40,36,29,244,27,68,160
100738202,39,36,42,116,23,52,143
100788202,67,41,89,72,22,42,102
100838202,123,42,97,55,25,61,83
100888202,71,39,91,57,22,43,74
100938202,50,37,49,64,21,36,68
100988202,42,36,35,53,21,32,77
101038202,40,36,30,48,21,31,71
101088202,41,50,45,48,100,33,154
101138202,48,78,76,53,94,35,139
101188202,115,113,100,73,70,34,125
101238202,121,165,121,68,201,45,116
101288202,90,166,130,60,116,38,141
101338202,74,109,130,62,140,39,102
101388202,50,60,61,63,65,34,82
101438202,96,45,39,66,35,32,105
101488202,85,40,32,84,73,33,86
101538202,53,37,29,117,126,32,91
101588202,43,37,29,216,60,32,113
101638202,42,37,28,313,35,38,107
101688202,41,36,29,141,27,45,100
101738202,58,36,39,78,23,41,82
101788202,118,37,58,58,26,51,73
101838202,127,50,102,59,27,41,69
101888202,67,41,54,59,23,35,66
101938202,49,38,37,51,21,32,77
101988202,41,36,32,48,21,31,79
102038202,41,36,31,46,21,30,113
102088202,39,53,62,52,161,40,237
102138202,44,78,64,63,85,44,165
102188202,66,120,113,78,233,66,174
102238202,102,147,149,88,179,52,154
102288202,132,156,286,71,141,48,177
102338202,70,76,122,75,62,36,166
102388202,50,49,58,64,35,32,130
102438202,46,42,38,65,39,31,109
102488202,41,38,32,108,88,31,128
102538202,39,37,30,200,126,37,130
102588202,38,36,29,501,62,33,138
102638202,38,36,28,251,35,37,130
102688202,38,36,29,121,26,42,102
102738202,100,36,40,72,23,39,81
102788202,91,36,44,58,22,42,72
102838202,98,44,73,56,23,35,69
102888202,58,39,44,60,24,32,67
102938202,45,37,33,53,22,31,68
102988202,40,36,30,48,126,32,77
103038202,40,43,47,51,89,32,197
103088202,41,116,68,56,93,38,158
103138202,180,135,109,79,138,60,140
103188202,178,176,154,89,186,52,113
103238202,97,141,144,90,142,47,98
103288202,82,100,107,76,64,39,78
103338202,53,58,53,65,35,33,71
103388202,53,43,36,61,26,31,68
103438202,45,39,32,76,54,36,66
103488202,40,37,29,116,44,38,65
103538202,39,36,28,209,31,33,65
103588202,52,36,29,167,25,34,82
103638202,43,36,29,104,22,35,78
103688202,102,37,37,68,21,37,69
103738202,126,38,58,55,21,37,67
103788202,82,38,52,58,21,32,66
103838202,52,37,37,70,21,33,64
103888202,43,37,31,57,21,33,86
103938202,40,36,29,49,21,31,74
103988202,39,45,42,47,22,30,166
104038202,39,75,54,57,30,32,222
104088202,63,97,85,67,85,38,149
104138202,120,137,138,68,184,76,198
104188202,92,159,126,60,194,66,169
104238202,110,103,109,76,87,47,114
104288202,67,65,54,64,43,36,100
104338202,48,46,36,62,30,32,109
104388202,41,40,31,65,33,30,92
104438202,39,38,29,127,39,30,86
104488202,39,37,29,191,28,29,76
104538202,38,37,28,276,24,57,81
104588202,38,37,29,128,22,59,83
104638202,68,38,42,77,22,47,72
104688202,104,39,60,59,22,63,69
104738202,98,40,62,54,22,46,66
104788202,60,37,42,59,22,36,70
104838202,45,36,33,53,22,33,104
104888202,41,36,30,48,29,32,82
104938202,39,37,29,47,23,31,124
104988202,39,43,49,58,25,32,195
105038202,87,96,76,60,50,35,218
105088202,105,101,120,65,132,90,244
105138202,96,135,127,65,220,94,156
105188202,82,174,165,76,146,67,195
105238202,52,82,72,83,130,46,138
105288202,43,51,42,83,97,37,106
105338202,40,42,33,90,70,33,77
105388202,39,38,30,114,48,32,65
105438202,38,37,29,152,64,34,112
105488202,38,37,28,192,40,31,125
105538202,38,36,28,228,28,66,134
105588202,44,36,29,128,24,59,118
105638202,49,36,35,72,23,57,107
105688202,66,37,46,58,22,56,85
105738202,73,37,40,51,22,39,74
105788202,61,37,56,52,23,33,69
105838202,46,36,38,49,22,32,87
105888202,41,36,31,49,22,31,89
105938202,39,36,29,46,24,31,76
105988202,38,40,29,48,65,32,99
106038202,39,46,46,50,79,33,114
106088202,79,73,66,51,44,34,177
106138202,71,129,96,69,56,56,202
106188202,68,171,159,90,199,113,206
106238202,112,154,196,77,172,84,247
106288202,111,110,100,111,89,50,197
106338202,62,59,51,72,94,42,158
106388202,46,44,36,62,46,34,131
106438202,41,39,31,60,29,31,138
106488202,39,37,30,87,81,32,192
106538202,38,37,29,112,83,33,259
106588202,38,39,28,438,53,35,287
106638202,44,41,28,346,35,52,328
106688202,40,37,29,145,26,46,298
106738202,94,37,42,78,23,40,180
106788202,85,37,58,60,22,48,121
106838202,89,40,65,60,22,38,89
106888202,55,37,41,63,22,34,77
106938202,44,36,32,52,21,31,69
106988202,40,36,29,48,51,31,93
107038202,39,47,30,52,216,37,168
107088202,39,51,57,57,126,34,150
107138202,106,108,92,77,64,37,170
107188202,113,139,116,79,157,48,134
107238202,128,190,158,76,147,53,134
107288202,116,187,160,69,76,38,129
107338202,64,90,70,74,63,35,96
107388202,46,54,41,56,54,34,80
107438202,47,42,33,72,54,34,73
107488202,43,38,29,111,75,34,72
107538202,40,37,29,210,61,33,81
107588202,39,37,28,305,34,49,84
107638202,38,36,28,176,25,52,78
107688202,38,36,29,93,22,45,68
107738202,85,38,62,62,22,49,66
107788202,61,37,50,54,21,45,66
107838202,48,37,37,57,22,36,65
107888202,41,36,32,55,21,33,69
107938202,39,36,30,52,21,31,87
107988202,38,36,29,48,42,30,105
108038202,38,42,48,47,37,33,188
108088202,39,82,53,50,27,32,166
108138202,159,133,84,73,84,38,172
108188202,140,164,110,66,162,44,127
108238202,96,151,126,60,143,48,134
108288202,65,97,69,65,62,37,102
108338202,47,56,41,68,35,33,78
108388202,45,43,32,60,41,32,65
108438202,41,39,30,67,39,31,61
108488202,39,38,29,129,71,32,67
108538202,48,36,28,314,50,33,80
108588202,43,36,28,329,31,61,83
108638202,40,36,28,156,24,56,76
108688202,38,36,29,82,22,45,67
108738202,121,37,54,59,22,52,66
108788202,100,37,60,57,22,44,66
108838202,59,37,45,59,21,36,66
108888202,45,36,34,55,21,34,77
108938202,40,36,30,53,25,31,82
108988202,39,36,29,49,22,30,86
109038202,38,46,31,47,34,30,173
109088202,40,59,74,56,50,33,139
109138202,102,118,106,63,72,39,157
109188202,91,127,119,68,163,43,150
109238202,80,134,161,62,233,61,131
109288202,57,84,106,60,96,42,98
109338202,44,52,53,62,46,34,82
109388202,101,42,35,62,29,33,84
109438202,84,38,31,67,91,32,77
109488202,53,37,29,152,77,34,116
109538202,44,37,28,544,52,34,123
109588202,40,36,28,478,32,60,117
109638202,38,36,28,233,25,53,104
109688202,42,36,33,107,23,42,82
109738202,117,38,65,66,22,57,73
109788202,91,37,56,59,24,41,69
109838202,55,37,39,62,23,34,67
109888202,44,36,32,57,23,32,98
109938202,40,36,29,51,69,30,82
109988202,39,37,29,55,60,31,154
110038202,40,45,38,62,34,31,182
110088202,80,124,59,62,41,34,136
110138202,149,139,137,62,173,53,137
110188202,142,151,159,62,193,57,106
110238202,81,172,186,76,97,40,105
110288202,53,81,81,86,47,33,80
110338202,43,51,45,70,30,31,72
110388202,40,42,34,65,24,31,68
110438202,39,38,30,104,34,31,80
110488202,38,37,29,192,30,31,81
110538202,38,37,28,280,39,49,96
110588202,52,36,28,182,27,68,104
110638202,43,36,29,91,24,54,96
110688202,101,40,57,62,22,44,78
110738202,68,39,54,55,22,54,71
110788202,52,37,41,54,21,40,68
110838202,42,36,33,57,21,34,77
110888202,40,36,30,50,21,31,79
110938202,39,36,29,48,21,31,80
110988202,38,47,30,48,63,33,210
111038202,40,67,54,58,56,32,162
111088202,167,156,110,67,102,43,186
111138202,151,157,159,58,182,52,134
111188202,87,167,238,74,167,50,117
111238202,67,111,170,72,72,38,99
111288202,48,61,73,62,38,33,94
111338202,74,45,42,63,27,32,83
111388202,66,39,32,65,49,30,88
111438202,47,37,30,118,59,30,110
111488202,42,37,29,254,36,32,157
111538202,44,36,28,324,29,64,147
111588202,40,36,28,233,23,56,138
111638202,41,36,30,109,22,44,107
111688202,110,37,47,67,21,61,84
111738202,68,37,45,59,22,46,74
111788202,52,36,36,64,21,36,70
111838202,43,36,32,53,21,32,71
111888202,40,36,29,50,21,30,72
111938202,39,40,30,47,21,30,169
111988202,39,50,53,57,72,32,209
112038202,80,103,125,60,65,37,144
112088202,145,166,169,76,158,47,144
112138202,145,205,200,68,135,48,129
112188202,96,134,204,80,82,39,117
112238202,65,74,93,77,45,33,85
112288202,71,48,49,78,30,32,73
112338202,109,41,35,82,40,32,69
112388202,62,38,30,121,60,31,65
112438202,46,37,29,172,45,33,64
112488202,43,37,28,296,29,51,65
112538202,39,36,28,166,24,58,69
112588202,40,36,33,89,21,52,64
112638202,131,38,58,60,22,54,65
112688202,101,37,60,54,21,41,65
112738202,65,37,40,61,23,34,65
112788202,47,36,32,54,24,33,87
112838202,41,36,30,49,22,30,93
112888202,39,36,29,48,40,30,95
112938202,38,46,50,51,80,32,175
112988202,44,66,70,57,58,32,117
113038202,152,125,85,68,57,41,137
113088202,130,147,136,74,172,74,101
113138202,96,179,191,63,145,49,114
113188202,77,146,155,65,64,37,96
113238202,52,73,68,70,37,33,76
113288202,43,49,41,56,27,31,71
113338202,43,40,32,79,24,30,68
113388202,40,37,30,120,23,30,65
113438202,46,37,29,188,26,32,66
113488202,41,36,28,249,22,69,65
113538202,38,35,28,145,21,58,79
113588202,38,36,34,79,21,42,72
113638202,70,37,64,57,22,68,68
113688202,57,37,64,54,22,46,66
113738202,46,36,40,58,21,36,66
113788202,41,35,33,54,21,33,81
113838202,39,36,29,50,22,31,87
113888202,38,37,29,47,21,30,101
113938202,38,42,40,47,76,31,137
113988202,40,64,79,55,49,30,112
114038202,77,118,109,56,94,31,97
114088202,65,102,73,78,222,63,90
114138202,59,87,75,104,260,62,75
114188202,50,104,102,118,120,43,99
114238202,42,58,51,82,55,35,88
114288202,42,44,35,74,33,32,76
114338202,41,39,30,71,26,30,77
114388202,40,37,29,85,34,32,81
114438202,38,37,28,147,34,30,88
114488202,38,36,29,195,27,31,101
114538202,37,36,28,116,23,56,110
114588202,38,37,42,81,22,51,96
114638202,51,41,68,58,21,42,78
114688202,73,38,45,52,24,43,71
114738202,51,37,35,52,22,34,73
114788202,43,36,32,53,22,33,70
114838202,40,36,30,51,22,32,69
114888202,38,36,29,49,22,30,65
114938202,38,45,49,47,21,30,107
114988202,39,70,60,54,60,33,187
115038202,47,91,55,61,39,31,130
115088202,72,116,77,58,111,41,150
115138202,90,132,100,64,158,43,101
115188202,69,112,129,63,155,37,100
115238202,51,79,72,76,78,34,84
115288202,42,50,42,57,42,32,73
115338202,40,41,33,63,28,30,69
115388202,40,37,30,57,39,31,67
115438202,38,37,29,86,51,32,65
115488202,38,37,28,147,37,31,95
115538202,38,39,28,234,27,33,167
115588202,38,37,28,151,23,56,175
115638202,38,36,28,87,21,41,164
115688202,51,37,33,59,21,45,113
115738202,105,38,56,50,22,53,88
115788202,72,39,59,50,21,38,76
115838202,60,37,42,54,21,34,73
115888202,45,37,34,51,21,31,81
115938202,41,36,30,49,21,31,70
115988202,39,38,29,48,21,30,111
116038202,39,50,51,49,64,30,168
116088202,38,70,51,52,69,31,126
116138202,77,124,86,58,56,30,121
116188202,79,146,129,70,125,40,103
116238202,72,186,166,67,131,46,81
116288202,80,138,89,58,69,36,95
116338202,51,76,49,64,41,32,78
116388202,64,50,35,55,44,31,70
116438202,68,41,30,59,60,30,72
116488202,48,37,29,80,73,31,69
116538202,41,37,28,173,46,31,87
116588202,39,36,28,368,35,33,104
116638202,38,36,28,368,27,70,108
116688202,38,36,28,153,23,47,94
116738202,44,36,29,80,21,39,73
116788202,62,37,45,58,21,59,69
116838202,80,37,50,53,21,40,69
116888202,56,36,39,66,21,34,68
116938202,44,36,32,53,22,32,74
116988202,40,36,29,50,21,30,68
117038202,39,36,29,48,22,30,85
117088202,38,42,44,48,110,31,198
117138202,40,52,75,52,57,32,159
117188202,89,104,109,65,57,39,116
117238202,95,175,130,71,205,57,106
117288202,68,127,126,62,146,45,132
117338202,55,87,70,69,109,36,100
117388202,43,53,42,73,53,32,86
117438202,61,43,32,80,47,32,93
117488202,57,39,30,72,71,32,85
117538202,44,37,28,122,110,32,160
117588202,41,36,29,227,60,32,187
117638202,39,36,29,286,36,42,180
117688202,38,36,28,172,27,54,156
117738202,39,36,29,87,23,44,121
117788202,76,37,53,60,22,49,89
117838202,76,39,63,53,22,44,77
117888202,51,37,43,69,21,35,68
117938202,42,36,34,54,21,33,74
117988202,39,36,30,52,21,31,68
118038202,38,36,29,49,21,30,65
118088202,38,39,29,47,21,31,142
118138202,40,41,57,54,105,36,169
118188202,87,104,90,60,92,41,139
118238202,128,117,125,71,153,56,152
118288202,93,130,122,76,176,58,135
118338202,75,107,122,72,88,40,144
118388202,50,59,58,66,47,34,103
118438202,42,44,38,65,30,32,85
118488202,40,40,31,60,28,30,76
118538202,39,37,30,90,69,31,80
118588202,38,36,29,229,63,32,86
118638202,39,36,28,416,43,44,87
118688202,39,36,28,320,28,64,88
118738202,39,36,28,166,24,49,73
118788202,94,36,48,86,22,41,69
118838202,84,38,56,67,22,50,68
118888202,58,37,41,59,21,39,66
118938202,44,36,33,64,21,34,66
118988202,41,36,30,54,21,31,76
119038202,39,36,29,48,24,31,70
119088202,38,43,29,47,66,32,143
119138202,39,50,62,52,100,36,164
119188202,85,101,105,66,52,42,164
119238202,111,142,148,69,117,50,146
119288202,105,141,204,77,142,53,111
119338202,78,172,196,57,69,39,113
119388202,52,86,82,74,62,33,87
119438202,44,53,45,58,80,33,75
119488202,50,43,33,62,113,32,69
119538202,42,39,30,99,106,33,71
119588202,39,37,29,177,61,33,81
119638202,38,36,28,425,39,40,92
119688202,38,36,28,244,27,67,95
119738202,38,36,28,133,23,50,92
119788202,77,36,36,74,21,40,75
119838202,77,37,56,57,22,53,70
119888202,75,37,44,56,21,42,68
119938202,50,37,34,67,21,34,65
119988202,42,36,31,62,21,32,81
120038202,39,36,29,51,20,31,69
120088202,38,42,29,47,21,31,126
120138202,38,43,46,52,100,36,187
120188202,58,108,68,61,61,39,139
120238202,93,129,77,71,150,45,145
120288202,87,182,135,81,182,45,114
120338202,101,142,154,62,134,42,148
120388202,61,121,80,66,75,35,105
120438202,45,64,44,72,80,33,82
120488202,42,46,34,55,76,32,78
120538202,39,40,30,88,93,31,70
120588202,39,37,29,143,65,32,89
120638202,38,37,29,327,40,32,97
120688202,38,36,28,334,28,53,99
120738202,38,36,28,173,23,46,81
120788202,48,36,31,86,22,39,70
120838202,65,37,50,59,21,58,68
120888202,93,38,47,58,21,42,67
120938202,57,36,36,61,22,34,65
120988202,44,36,31,53,25,32,75
121038202,40,36,30,50,22,30,74
121088202,39,38,29,47,46,31,98
121138202,38,48,33,52,72,30,174
121188202,47,72,55,60,45,31,124
121238202,132,144,100,79,97,46,141
121288202,127,171,136,73,214,68,114
121338202,99,156,174,64,127,50,142
121388202,65,108,120,64,108,37,102
121438202,48,60,57,58,52,33,83
121488202,91,45,37,66,40,31,74
121538202,80,39,31,97,38,31,69
121588202,52,37,29,183,69,33,66
121638202,50,36,28,266,51,33,63
121688202,42,36,28,221,32,61,65
121738202,39,36,29,131,25,57,63
121788202,57,36,32,74,22,42,61
121838202,92,37,41,55,22,60,63
121888202,73,38,59,52,21,42,64
121938202,49,37,38,55,21,35,63
121988202,42,36,32,53,22,32,75
122038202,39,36,29,48,21,31,71
122088202,38,36,32,46,39,31,86
122138202,39,41,47,49,36,31,172
122188202,58,80,83,62,27,37,124
122238202,247,174,158,87,185,53,162
122288202,167,210,156,73,280,63,149
122338202,167,154,172,61,151,49,131
122388202,104,110,87,62,135,41,96
122438202,59,60,47,54,110,39,84
122488202,45,45,34,73,179,51,76
122538202,40,39,30,89,173,48,73
122588202,40,37,29,174,94,41,79
122638202,39,37,28,372,58,37,105
122688202,39,36,28,458,34,38,114
122738202,38,36,29,192,26,40,94
122788202,106,37,55,95,24,36,79
122838202,116,40,63,70,22,35,72
122888202,77,38,50,73,22,32,69
122938202,53,37,38,62,26,31,71
122988202,44,36,32,52,23,30,88
123038202,40,40,30,49,21,30,115
123088202,39,46,50,53,22,31,215
123138202,39,85,60,59,23,44,149
123188202,84,120,144,85,114,59,142
123238202,69,166,162,85,138,56,124
123288202,73,135,176,65,138,50,161
123338202,71,78,95,75,61,37,159
123388202,147,51,50,62,34,34,174
123438202,86,46,36,79,34,32,140
123488202,54,40,31,108,71,30,125
123538202,43,37,29,182,81,34,139
123588202,40,37,28,309,50,34,147
123638202,38,37,28,212,31,53,130
123688202,38,37,29,100,25,45,99
123738202,83,37,55,67,22,37,81
123788202,114,39,75,61,22,37,73
123838202,64,37,51,73,24,35,70
123888202,47,37,36,59,25,33,73
123938202,41,36,31,234,22,31,90
123988202,39,36,29,111,21,30,93
124038202,42,49,51,69,38,31,207
124088202,43,81,86,59,38,39,168
124138202,221,122,133,75,85,56,127
124188202,200,204,99,77,133,66,132
124238202,162,220,205,69,187,62,171
124288202,90,158,136,55,81,43,116
124338202,55,77,63,66,42,35,84
124388202,44,50,39,66,30,34,74
124438202,41,41,31,97,103,31,71
124488202,45,37,29,214,111,31,69
124538202,40,37,28,459,62,35,67
124588202,39,36,28,306,37,74,66
124638202,37,36,28,144,26,61,63
124688202,53,36,39,77,23,46,61
124738202,81,39,69,59,22,59,56
124788202,80,39,61,56,26,43,61
124838202,69,37,48,64,28,35,72
124888202,49,36,35,57,23,32,86
124938202,42,36,30,49,22,30,74
124988202,40,45,54,48,28,30,148
125038202,41,75,51,50,25,33,186
125088202,55,115,83,65,87,53,132
125138202,82,176,119,85,226,51,126
125188202,72,149,159,71,173,46,174
125238202,56,184,125,59,87,37,147
125288202,44,85,59,60,44,33,128
125338202,41,52,38,58,31,33,133
125388202,40,42,31,68,50,30,104
125438202,38,38,29,108,91,31,110
125488202,38,37,29,168,48,34,123
125538202,39,36,29,318,30,50,119
125588202,38,36,48,164,24,62,122
125638202,45,37,38,90,22,44,103
125688202,84,38,57,65,22,52,83
125738202,84,39,62,62,22,54,72
125788202,65,38,52,68,22,40,67
125838202,58,37,38,58,26,35,107
125888202,45,36,32,52,22,32,85
125938202,41,36,29,49,21,32,109
125988202,40,51,52,49,24,31,211
126038202,48,77,77,54,41,39,178
126088202,96,141,125,73,139,55,186
126138202,105,148,108,67,229,67,169
126188202,78,130,144,65,127,55,198
126238202,57,68,65,72,58,39,126
126288202,49,46,40,61,34,34,101
126338202,59,41,32,76,33,32,81
126388202,46,38,30,160,48,31,81
126438202,41,37,29,208,53,36,104
126488202,42,36,28,342,34,42,110
126538202,39,36,28,312,26,76,95
126588202,38,36,28,146,21,56,75
126638202,90,37,36,80,22,41,69
126688202,78,37,46,66,22,55,68
126738202,53,36,38,64,21,45,67
126788202,43,36,32,58,21,36,71
126838202,39,36,29,51,21,32,98
126888202,39,36,29,48,21,31,153
126938202,38,48,47,48,52,32,253
126988202,38,76,44,52,40,33,184
127038202,120,103,120,74,69,38,135
127088202,114,203,191,69,112,44,104
127138202,115,233,226,74,103,45,132
127188202,93,180,143,59,48,38,100
127238202,61,100,80,63,34,33,82
127288202,45,59,45,53,25,33,72
127338202,41,44,33,80,37,31,68
127388202,41,38,30,134,144,35,66
127438202,46,37,29,331,82,36,61
127488202,72,37,28,562,44,66,59
127538202,54,37,28,235,28,56,63
127588202,85,38,41,114,24,44,64
127638202,109,37,48,69,22,58,65
127688202,89,37,50,57,22,55,65
127738202,55,36,37,59,22,38,65
127788202,44,36,32,56,21,35,99
127838202,40,36,30,50,25,31,100
127888202,39,38,36,47,88,32,146
127938202,39,47,58,55,88,34,179
127988202,70,127,81,54,67,33,127
128038202,121,281,140,76,176,66,116
128088202,112,246,143,74,187,61,100
128138202,92,208,236,74,80,42,147
128188202,68,141,110,82,41,35,102
128238202,57,71,54,91,30,32,82
128288202,74,49,37,113,24,32,73
128338202,61,41,31,145,23,31,69
128388202,46,37,33,130,22,32,74
128438202,46,37,30,299,22,35,82
128488202,46,36,29,165,21,43,81
128538202,41,36,28,101,21,42,69
128588202,40,37,90,69,21,35,66
128638202,40,37,52,54,21,45,65
128688202,39,36,36,50,21,35,64
128738202,38,36,31,57,21,32,68
128788202,38,37,30,59,22,31,84
128838202,38,40,29,54,21,32,92
128888202,38,38,29,55,21,30,86
128938202,44,46,32,50,21,30,86
128988202,40,40,29,55,21,30,77
129038202,39,39,29,50,21,30,71
129088202,38,37,29,54,21,30,68
129138202,38,38,29,90,21,30,66
129188202,38,37,30,78,22,30,72
129238202,38,37,32,64,22,30,76
129288202,38,37,30,138,24,29,99
129338202,38,40,32,84,22,30,105
129388202,38,40,29,90,22,30,91
129438202,38,39,32,73,24,30,126
129488202,38,39,30,84,22,30,107
129538202,38,37,31,59,23,54,149
129588202,89,321,193,86,91,94,116
129638202,125,418,433,75,377,227,105
129688202,116,314,323,112,342,176,127
129738202,230,231,215,106,269,201,164
129788202,237,255,190,208,258,199,156
129838202,121,125,87,174,325,176,125
129888202,65,72,49,164,307,119,181
129938202,47,48,35,195,263,81,126
129988202,41,41,31,151,174,66,94
130038202,68,42,31,326,80,46,138
130088202,49,41,29,653,45,37,98
130138202,41,39,29,430,30,35,78
130188202,41,37,30,185,25,43,71
130238202,69,38,39,93,22,36,68
130288202,102,38,58,65,22,32,66
130338202,106,37,49,62,21,33,66
130388202,59,37,36,54,24,33,66
130438202,46,36,31,50,22,32,67
130488202,41,36,29,47,21,31,63
130538202,39,39,29,48,32,33,134
130588202,40,39,52,103,117,34,233
130638202,64,80,46,75,80,42,157
130688202,109,112,127,80,137,53,157
130738202,116,221,186,92,284,69,137
130788202,102,162,138,74,212,47,205
130838202,61,77,62,70,89,36,163
130888202,46,50,39,59,46,32,123
130938202,105,41,32,53,49,32,90
130988202,124,37,31,73,115,39,96
131038202,66,37,29,157,123,37,119
131088202,48,36,29,433,69,34,168
131138202,48,36,28,378,37,60,187
131188202,42,36,28,204,26,49,161
131238202,51,37,38,101,23,38,115
131288202,122,40,76,67,24,56,87
131338202,71,38,64,67,23,46,75
131388202,51,37,44,66,25,35,70
131438202,43,36,34,60,22,33,88
131488202,40,36,30,50,21,31,69
131538202,39,45,29,50,87,31,118
131588202,39,44,59,59,74,31,239
131638202,61,105,90,62,53,41,169
131688202,80,141,128,65,105,55,124
131738202,83,187,181,76,137,56,113
131788202,77,138,161,83,84,41,139
131838202,52,83,78,69,42,34,106
131888202,43,52,44,60,28,31,86
131938202,40,42,33,66,32,30,78
131988202,39,38,30,68,53,32,69
132038202,38,37,29,155,50,31,99
132088202,38,37,28,312,39,35,125
132138202,38,36,28,189,27,73,135
132188202,38,36,29,110,23,50,123
132238202,93,37,50,67,22,40,94
132288202,89,38,54,56,23,63,79
132338202,76,38,61,56,22,47,71
132388202,50,37,39,54,21,36,69
132438202,55,36,32,52,21,33,94
132488202,46,36,30,49,21,31,79
132538202,40,43,30,48,24,31,133
132588202,41,50,46,51,69,34,188
132638202,96,100,93,55,73,47,158
132688202,95,172,128,58,158,45,125
132738202,92,189,216,70,104,49,135
132788202,71,130,183,61,54,38,134
132838202,49,69,77,77,34,33,93
132888202,49,47,44,58,28,32,78
132938202,93,40,33,62,48,31,74
132988202,57,38,30,65,86,32,69
133038202,44,36,28,182,78,34,113
133088202,40,36,28,342,50,34,132
133138202,38,36,28,281,31,73,145
133188202,38,36,28,126,24,49,123
133238202,109,37,50,74,22,38,91
133288202,89,37,52,61,23,56,78
133338202,57,37,39,61,21,43,72
133388202,44,36,32,55,22,35,72
133438202,40,36,30,52,21,32,84
133488202,39,36,29,48,21,31,67
133538202,39,37,29,47,46,31,147
133588202,39,40,44,50,119,33,163
133638202,106,94,67,65,60,35,150
133688202,132,165,133,76,122,48,129
133738202,113,179,218,78,198,67,100
133788202,92,113,193,73,82,42,112
133838202,70,108,104,89,42,35,87
133888202,60,60,53,61,28,33,76
133938202,90,45,36,58,23,30,71
133988202,56,39,31,77,78,30,69
134038202,44,37,29,142,88,33,92
134088202,43,37,28,523,51,39,118
134138202,40,36,28,425,31,62,131
134188202,38,36,28,177,24,46,124
134238202,61,36,46,88,22,39,92
134288202,81,36,53,64,21,57,78
134338202,60,37,43,57,21,42,72
134388202,45,36,34,56,21,34,68
134438202,39,36,30,52,21,32,78
134488202,39,36,29,50,21,31,70
134538202,38,38,30,47,55,31,157
134588202,40,43,39,55,97,31,198
134638202,94,99,77,59,67,42,157
134688202,121,137,137,94,124,52,128
134738202,91,181,221,79,164,50,126
134788202,70,115,193,70,73,39,131
134838202,52,67,82,69,40,33,102
134888202,43,46,46,62,28,33,104
134938202,79,40,34,61,47,30,88
134988202,55,38,30,71,134,38,100
135038202,44,37,29,397,75,36,151
135088202,40,36,29,414,48,32,173
135138202,39,36,28,341,32,65,170
135188202,38,36,28,145,24,54,133
135238202,97,36,37,79,22,43,96
135288202,86,38,58,64,22,53,78
135338202,56,37,44,58,21,41,71
135388202,43,36,33,53,21,34,67
135438202,40,36,30,51,21,31,66
135488202,40,36,29,48,110,31,80
135538202,39,45,31,47,158,38,182
135588202,39,55,53,52,93,34,136
135638202,143,140,87,61,132,38,142
135688202,144,153,117,64,173,45,116
135738202,109,182,166,75,166,52,93
135788202,84,137,181,70,81,38,86
135838202,53,70,77,64,51,33,78
135888202,43,48,44,59,40,32,74
135938202,40,40,33,63,87,31,69
135988202,38,36,30,85,67,32,65
136038202,42,37,29,333,57,32,64
136088202,39,36,28,461,35,43,73
136138202,38,36,28,212,26,60,81
136188202,38,36,28,102,22,50,66
136238202,136,37,47,65,22,49,65
136288202,86,36,45,56,21,51,66
136338202,63,37,39,65,21,39,65
136388202,46,35,32,59,21,33,65
136438202,41,37,30,59,21,31,79
136488202,39,36,29,51,64,32,116
136538202,39,41,44,47,68,32,215
136588202,39,49,43,50,58,32,166
136638202,123,137,98,58,73,50,132
136688202,121,154,130,62,145,52,116
136738202,116,170,206,68,163,52,113
136788202,90,134,165,57,71,39,89
136838202,55,69,72,66,43,33,77
136888202,44,47,42,54,31,32,70
136938202,40,40,33,69,58,31,68
136988202,38,37,30,119,77,32,67
137038202,40,36,29,263,49,33,63
137088202,39,36,28,300,31,53,88
137138202,38,36,28,254,25,61,92
137188202,38,36,29,114,22,48,78
137238202,98,37,41,69,22,65,68
137288202,74,37,52,59,22,48,67
137338202,56,36,41,57,23,37,65
137388202,44,36,32,52,21,33,78
137438202,40,36,30,51,22,31,66
137488202,40,36,29,47,21,31,86
137538202,38,41,45,52,81,33,230
137588202,44,81,48,50,89,35,176
137638202,143,123,106,67,113,46,143
137688202,133,106,130,88,173,66,121
137738202,97,161,247,80,149,52,184
137788202,66,102,111,77,78,39,133
137838202,47,58,55,82,41,33,140
137888202,44,44,36,65,28,32,98
137938202,41,39,31,75,23,30,84
137988202,39,37,30,125,90,32,107
138038202,38,37,28,185,54,35,146
138088202,40,36,28,482,32,76,147
138138202,38,36,28,209,25,61,171
138188202,54,37,45,99,22,44,128
138238202,100,41,79,67,23,70,95
138288202,82,39,62,58,22,57,80
138338202,52,37,40,55,21,40,72
138388202,43,36,33,53,20,34,80
138438202,40,36,30,50,43,31,73
138488202,39,39,30,48,49,32,113
138538202,39,46,40,53,113,36,215
138588202,88,110,66,60,68,39,176
138638202,164,134,108,72,157,87,147
138688202,109,145,92,80,158,77,121
138738202,88,146,181,69,79,48,125
138788202,54,77,84,80,41,36,94
138838202,44,50,46,67,28,32,80
138888202,41,41,34,68,23,30,70
138938202,39,38,30,78,75,33,70
138988202,38,37,29,181,52,33,62
139038202,39,37,29,346,35,52,73
139088202,39,36,28,353,25,89,113
139138202,38,36,28,183,22,61,101
139188202,116,37,54,138,22,48,80
139238202,69,37,45,89,22,66,73
139288202,60,37,41,80,21,45,69
139338202,45,36,33,61,21,37,76
139388202,40,36,30,54,21,34,79
139438202,39,36,29,50,26,31,71
139488202,38,38,29,53,100,31,142
139538202,38,43,42,53,106,34,200
139588202,81,104,83,78,74,52,151
139638202,117,161,152,85,152,66,127
139688202,99,260,159,76,148,57,118
139738202,73,142,92,74,77,40,124
139788202,50,81,66,72,49,33,112
139838202,43,51,40,59,31,33,90
139888202,87,42,32,56,80,31,78
139938202,67,38,30,145,68,32,97
139988202,47,37,29,192,59,31,116
140038202,47,36,28,640,38,58,134
140088202,41,36,28,278,27,65,125
140138202,41,36,28,128,23,56,90
140188202,104,40,54,75,22,48,77
140238202,97,38,57,60,22,48,72
140288202,68,37,44,59,21,38,67
140338202,47,36,34,56,23,34,67
140388202,41,36,30,50,22,32,77
140438202,39,36,29,47,40,30,71
140488202,38,39,32,46,138,31,196
140538202,39,56,74,48,91,33,181
140588202,94,112,140,73,106,58,148
140638202,105,187,198,72,188,56,105
140688202,106,222,235,72,183,62,114
140738202,67,115,179,66,78,41,102
140788202,47,62,76,63,40,34,83
140838202,65,45,43,55,28,32,74
140888202,79,40,33,69,44,30,70
140938202,52,37,30,103,109,31,68
140988202,42,36,29,408,73,34,73
141038202,41,37,28,451,47,68,104
141088202,39,36,28,252,29,65,113
141138202,52,36,29,120,24,48,88
141188202,105,39,61,243,22,56,76
141238202,87,40,64,116,25,51,68
141288202,59,37,45,85,22,38,66
141338202,46,36,34,71,21,35,75
141388202,41,36,31,55,22,31,76
141438202,39,37,29,49,51,32,112
141488202,40,45,39,48,66,32,246
141538202,54,80,62,52,48,37,177
141588202,120,126,106,78,117,70,141
141638202,124,187,173,93,176,62,98
141688202,98,172,185,81,90,43,120
141738202,68,88,105,69,61,35,91
141788202,49,53,52,71,35,32,81
141838202,42,42,36,60,26,31,73
141888202,40,38,32,84,59,30,69
141938202,39,37,29,153,81,31,67
141988202,52,37,29,630,56,33,84
142038202,42,37,29,502,32,86,102
142088202,40,36,28,210,25,60,96
142138202,89,36,41,100,23,42,79
142188202,132,39,59,72,24,54,72
142238202,117,37,46,61,22,56,68
142288202,81,36,34,58,21,39,66
142338202,53,36,31,52,21,33,74
142388202,43,36,29,49,49,32,81
142438202,40,51,31,49,71,32,148
142488202,40,60,63,52,129,36,158
142538202,152,111,104,68,78,49,156
142588202,167,168,203,76,213,56,111
142638202,125,181,235,256,142,57,104
142688202,112,142,142,129,63,42,91
142738202,62,71,64,95,35,34,79
142788202,46,48,40,70,26,33,70
142838202,41,41,32,89,60,31,68
142888202,39,37,30,149,55,31,66
142938202,38,37,29,203,52,32,65
142988202,45,36,28,535,32,73,85
143038202,40,36,28,245,25,61,84
143088202,41,36,28,114,22,45,73
143138202,126,37,39,69,21,52,69
143188202,68,37,40,62,22,55,68
143238202,54,36,38,68,21,41,66
143288202,43,36,32,60,21,35,94
143338202,40,37,29,53,21,32,93
143388202,38,36,28,48,26,31,81
143438202,39,45,29,47,92,32,196
143488202,40,65,56,50,58,33,188
143538202,189,124,108,74,67,44,149
143588202,205,242,190,63,143,50,108
143638202,127,229,201,62,172,51,117
143688202,82,123,118,60,76,40,98
143738202,52,65,57,63,39,33,94
143788202,43,46,37,53,28,33,79
143838202,40,40,32,112,77,32,85
143888202,39,37,30,139,99,31,73
143938202,40,37,29,337,53,32,94
143988202,38,36,28,307,32,70,110
144038202,38,36,28,159,25,60,96
144088202,60,36,42,83,23,45,77
144138202,82,36,50,60,22,62,71
144188202,64,36,42,55,21,46,63
144238202,47,36,34,58,21,36,72
144288202,41,36,30,54,21,34,88
144338202,39,36,29,50,21,31,70
144388202,38,36,29,47,70,31,118
144438202,38,50,39,52,74,38,220
144488202,143,107,76,56,68,46,164
144538202,200,125,86,75,121,58,131
144588202,201,154,154,82,215,59,119
144638202,145,192,238,64,99,44,181
144688202,79,140,130,70,54,35,120
144738202,58,70,60,60,59,33,93
144788202,98,48,39,56,108,33,81
144838202,67,40,32,77,140,35,79
144888202,48,38,29,157,129,34,110
144938202,41,37,28,352,60,35,153
144988202,39,37,28,230,34,58,164
145038202,38,36,28,109,25,46,141
145088202,59,37,40,67,22,45,99
145138202,83,37,47,56,21,49,81
145188202,56,37,42,55,21,38,72
145238202,45,36,33,57,23,33,80
145288202,40,36,30,54,21,32,82
145338202,39,36,29,48,23,32,73
145388202,38,42,30,47,74,32,182
145438202,38,46,62,54,120,37,158
145488202,261,112,121,82,70,42,145
145538202,265,113,144,93,183,62,154
145588202,155,215,177,67,200,57,203
145638202,84,120,148,65,130,42,149
145688202,54,64,66,81,68,35,121
145738202,70,46,40,64,49,33,91
145788202,72,39,33,92,41,32,77
145838202,49,37,30,132,64,38,78
145888202,42,37,29,202,42,35,74
145938202,73,37,29,393,29,50,93
145988202,50,36,28,217,23,48,80
146038202,47,36,40,100,22,41,72
146088202,119,40,65,65,21,43,68
146138202,84,41,67,61,23,47,65
146188202,68,38,42,61,23,38,66
146238202,51,36,33,55,24,34,69
146288202,42,36,30,49,22,31,70
146338202,40,37,29,48,110,32,122
146388202,39,49,50,54,155,36,237
146438202,43,89,76,57,77,34,150
146488202,205,118,134,69,149,51,137
146538202,186,143,159,70,146,48,120
146588202,127,131,224,69,86,48,114
146638202,82,84,106,62,43,37,89
146688202,52,51,53,63,29,32,77
146738202,43,42,36,62,24,31,71
146788202,42,38,31,70,22,33,68
146838202,39,37,29,130,33,33,65
146888202,38,37,28,200,31,32,65
146938202,41,36,28,216,24,65,89
146988202,39,36,28,113,23,51,101
147038202,63,37,43,70,22,41,81
147088202,115,38,69,57,23,66,73
147138202,76,38,54,55,23,48,67
147188202,50,36,39,61,21,37,67
147238202,44,36,32,54,21,33,96
147288202,40,36,30,48,21,31,77
147338202,39,40,40,47,21,31,137
147388202,39,52,42,52,40,35,170
147438202,62,129,75,59,42,35,124
147488202,125,143,96,74,177,59,168
147538202,115,194,156,66,134,53,193
147588202,74,124,133,53,68,40,153
147638202,51,75,82,61,37,33,101
147688202,42,49,45,62,37,32,82
147738202,62,41,34,90,27,31,74
147788202,47,38,30,120,33,36,67
147838202,41,37,29,201,34,35,60
147888202,42,39,28,313,25,46,71
147938202,40,37,28,173,23,65,94
147988202,71,36,53,91,22,54,79
148038202,82,39,78,63,22,61,71
148088202,65,37,54,56,22,51,68
148138202,47,37,37,67,21,37,70
148188202,42,36,31,57,21,33,103
148238202,39,36,29,50,21,30,111
148288202,38,38,37,49,21,31,147
148338202,38,49,45,51,31,33,191
148388202,44,124,109,56,37,48,133
148438202,162,142,157,88,164,54,151
148488202,144,132,178,89,147,52,164
148538202,89,111,171,71,68,40,145
148588202,75,94,80,74,45,33,101
148638202,55,55,45,62,30,33,88
148688202,104,42,34,61,38,31,77
148738202,68,39,30,150,36,31,76
148788202,49,37,29,199,50,36,87
148838202,46,36,28,321,31,48,98
148888202,40,36,28,195,25,64,104
148938202,144,37,56,95,24,54,82
148988202,155,40,70,63,25,59,74
149038202,83,37,62,58,25,46,70
149088202,53,36,40,60,22,35,72
149138202,52,36,33,55,22,33,104
149188202,43,36,30,50,22,31,86
149238202,40,52,40,48,21,31,170
149288202,39,54,42,56,109,33,245
149338202,156,102,72,60,60,44,153
149388202,233,141,175,86,150,65,136
149438202,141,241,250,76,133,64,136
149488202,114,201,231,78,59,44,112
149538202,65,90,92,70,34,35,88
149588202,47,54,48,69,26,32,76
149638202,42,43,35,66,38,31,72
149688202,40,38,30,101,57,32,68
149738202,39,37,29,249,39,33,67
149788202,53,37,28,454,32,53,76
149838202,43,36,28,236,24,62,99
149888202,40,37,30,115,22,49,80
149938202,144,37,67,76,22,64,72
149988202,106,39,60,61,21,58,69
150038202,68,37,43,60,23,40,67
150088202,48,36,33,54,22,36,93
150138202,41,36,30,49,21,31,96
150188202,39,36,30,47,58,32,143
150238202,38,43,52,51,110,33,260
150288202,47,73,64,57,63,34,168
150338202,199,168,128,85,145,61,129
150388202,165,173,172,75,181,58,121
150438202,113,157,204,75,96,45,195
150488202,74,118,105,65,47,36,136
150538202,50,63,53,58,30,32,100
150588202,42,46,36,62,40,31,82
150638202,40,39,31,73,55,31,72
150688202,38,37,29,174,77,32,62
150738202,40,37,28,505,49,35,85
150788202,39,36,28,318,31,71,122
150838202,38,36,29,137,24,52,113
150888202,111,38,73,78,23,38,85
150938202,111,40,72,64,26,50,75
150988202,63,37,46,57,22,42,70
151038202,46,36,35,57,22,35,89
151088202,41,36,30,52,21,33,100
151138202,39,36,29,48,21,31,81
151188202,39,71,40,52,94,33,197
151238202,38,54,39,53,142,42,204
151288202,202,120,126,68,95,66,166
151338202,195,156,145,71,236,61,147
151388202,110,154,153,74,166,74,171
151438202,72,106,132,61,74,48,137
151488202,49,59,61,67,40,36,105
151538202,64,44,38,55,29,33,85
151588202,76,39,32,73,78,35,79
151638202,50,37,30,94,85,32,68
151688202,42,36,29,311,53,32,83
151738202,39,36,28,408,37,64,123
151788202,38,36,28,203,25,62,121
151838202,91,37,35,100,23,49,95
151888202,119,41,76,73,23,66,79
151938202,95,39,65,59,25,54,72
151988202,57,37,43,59,25,38,73
152038202,44,36,33,51,25,35,101
152088202,40,36,30,48,50,31,80
152138202,39,38,31,48,74,32,162
152188202,40,41,44,55,131,34,312
152238202,109,108,87,58,82,48,198
152288202,227,143,122,72,152,70,154
152338202,180,239,243,84,166,72,130
152388202,143,153,162,77,85,49,188
152438202,79,76,75,75,72,38,123
152488202,52,49,43,59,39,33,92
152538202,43,42,33,62,31,32,78
152588202,40,38,30,91,81,35,72
152638202,38,36,29,187,68,36,68
152688202,40,37,28,330,47,38,85
152738202,39,37,28,282,30,81,136
152788202,39,36,29,128,24,59,113
152838202,82,39,61,74,22,49,84
152888202,82,40,63,60,23,62,74
152938202,57,38,45,253,22,46,69
152988202,44,36,35,124,22,38,78
153038202,40,36,31,75,20,33,83
153088202,39,36,29,56,119,32,75
153138202,38,41,42,53,84,33,237
153188202,43,70,73,68,44,31,170
153238202,248,209,241,75,186,59,143
153288202,232,176,192,94,227,60,104
153338202,171,200,228,122,195,77,154
153388202,121,121,136,113,115,50,110
153438202,66,63,62,78,56,37,86
153488202,48,45,39,296,36,35,77
153538202,42,40,33,140,62,37,110
153588202,39,37,30,145,73,37,86
153638202,38,37,29,261,66,32,81
153688202,38,37,28,218,38,76,103
153738202,38,37,28,106,26,72,109
153788202,59,36,55,69,23,51,84
153838202,65,37,52,60,28,58,74
153888202,61,37,56,54,25,41,70
153938202,48,37,46,55,22,34,68
153988202,41,36,34,73,22,33,111
154038202,39,36,31,90,27,31,111
154088202,39,46,36,100,50,38,248
154138202,41,92,66,126,89,41,196
154188202,167,124,95,90,206,56,127
154238202,173,173,170,124,294,91,99
154288202,90,121,116,126,197,62,194
154338202,82,89,92,107,111,42,151
154388202,52,54,49,67,52,35,106
154438202,97,42,34,53,31,31,98
154488202,82,38,30,50,42,33,87
154538202,53,36,29,82,122,34,78
154588202,43,40,28,116,71,35,76
154638202,39,48,28,384,39,59,147
154688202,45,41,28,221,27,67,182
154738202,45,38,29,124,24,52,179
154788202,72,39,39,77,22,51,118
154838202,91,45,70,71,30,65,91
154888202,63,39,47,56,25,50,85
154938202,49,37,35,54,22,40,90
154988202,42,36,31,88,21,33,77
155038202,40,36,30,80,26,32,137
155088202,38,38,35,72,62,35,186
155138202,93,68,60,105,63,32,158
155188202,86,123,134,86,89,56,134
155238202,149,250,218,96,286,95,121
155288202,123,176,192,93,188,65,149
155338202,152,256,191,80,136,56,131
155388202,78,110,79,79,69,45,99
155438202,51,61,44,73,72,37,82
155488202,43,44,33,90,105,34,85
155538202,40,39,30,97,196,36,78
155588202,39,40,29,336,84,36,139
155638202,41,38,29,499,42,46,169
155688202,39,37,28,289,28,54,178
155738202,42,39,29,126,24,45,173
155788202,78,37,32,73,22,49,119
155838202,91,39,58,69,25,45,91
155888202,90,37,45,80,23,44,77
155938202,68,36,37,77,21,36,74
155988202,48,36,32,71,20,32,80
156038202,41,36,29,56,21,32,73
156088202,39,36,29,53,26,32,112
156138202,39,57,79,59,97,36,146
156188202,55,90,79,66,75,58,156
156238202,82,185,124,87,149,65,123
156288202,117,280,163,97,201,65,95
156338202,95,169,137,71,111,51,174
156388202,79,157,113,80,60,41,124
156438202,52,76,56,58,139,44,159
156488202,43,50,37,73,101,36,129
156538202,40,41,31,108,170,35,97
156588202,38,37,32,252,108,33,127
156638202,38,37,30,321,53,33,167
156688202,38,37,29,408,32,61,149
156738202,40,38,31,165,25,50,130
156788202,60,39,33,86,24,38,119
156838202,110,40,62,78,24,40,90
156888202,138,39,60,62,25,41,77
156938202,84,37,42,83,22,34,80
156988202,55,37,34,185,27,33,85
157038202,44,36,31,166,23,31,113
157088202,40,36,35,157,21,30,217
157138202,40,50,57,110,75,35,225
157188202,55,98,89,78,55,38,181
157238202,77,252,142,88,167,45,134
157288202,100,232,232,81,173,48,116
157338202,106,282,168,91,195,45,142
157388202,62,128,74,88,87,35,102
157438202,50,66,43,69,44,32,83
157488202,54,47,33,68,29,31,74
157538202,46,40,30,101,27,31,70
157588202,41,37,30,100,41,30,76
157638202,45,37,28,309,29,35,97
157688202,40,37,28,223,24,94,138
157738202,39,37,32,117,22,75,130
157788202,63,37,46,70,22,49,96
157838202,73,37,40,55,22,71,82
157888202,89,39,73,59,23,55,71
157938202,55,37,45,64,21,41,68
157988202,44,36,34,56,21,34,88
158038202,40,36,30,50,21,32,78
158088202,39,38,32,48,21,31,206
158138202,41,46,43,55,46,31,222
158188202,46,93,60,58,53,50,166
158238202,100,172,108,65,141,61,165
158288202,90,198,142,60,225,60,136
158338202,78,130,110,100,141,46,161
158388202,52,75,59,104,73,36,120
158438202,42,49,38,68,41,33,92
158488202,55,41,31,61,29,30,79
158538202,45,37,30,61,64,34,72
158588202,40,37,29,142,84,35,69
158638202,38,37,28,296,55,33,82
158688202,38,37,28,623,33,77,126
158738202,38,37,28,266,25,58,123
158788202,40,37,32,120,23,51,94
158838202,103,42,72,73,26,63,78
158888202,76,41,57,61,23,45,72
158938202,52,37,39,54,21,36,84
158988202,44,36,32,52,23,33,99
159038202,40,36,30,48,24,31,84
159088202,39,36,29,46,22,31,93
159138202,38,42,32,49,89,32,227
159188202,39,47,55,54,50,31,165
159238202,109,95,89,62,45,37,173
159288202,110,202,189,65,156,48,124
159338202,83,143,121,85,183,77,110
159388202,71,122,161,85,77,49,109
159438202,50,66,70,75,41,36,83
159488202,42,46,41,64,28,32,75
159538202,40,40,33,72,54,31,67
159588202,39,37,30,107,55,35,69
159638202,39,37,29,236,45,33,76
159688202,38,37,28,308,29,83,107
159738202,38,36,28,147,24,77,115
159788202,54,36,32,90,22,60,90
159838202,102,38,53,62,23,74,78
159888202,79,37,45,57,23,50,71
159938202,51,36,34,71,27,37,73
159988202,42,36,31,57,23,34,92
160038202,40,36,29,50,90,33,89
160088202,39,37,30,47,98,32,199
160138202,38,48,30,62,136,38,229
160188202,63,94,70,62,65,34,168
160238202,116,141,128,65,87,61,131
160288202,128,194,220,76,273,77,99
160338202,137,231,198,67,142,56,88
160388202,80,103,85,68,86,40,79
160438202,52,58,46,59,50,33,73
160488202,42,44,34,54,31,32,69
160538202,40,38,30,72,77,32,66
160588202,38,37,29,146,82,34,68
160638202,38,36,28,256,49,33,112
160688202,38,36,28,271,31,76,147
160738202,38,36,28,140,24,67,150
160788202,69,37,40,77,22,45,105
160838202,126,40,65,63,22,59,84
160888202,93,39,65,56,21,43,74
160938202,67,37,43,58,21,34,79
160988202,49,36,33,52,21,34,86
161038202,41,36,30,50,21,30,84
161088202,39,38,29,48,21,30,118
161138202,39,41,34,53,53,32,245
161188202,65,76,69,55,50,61,164
161238202,116,132,164,76,130,85,128
161288202,93,180,109,97,262,74,130
161338202,84,140,225,95,128,53,143
161388202,57,78,90,83,57,38,115
161438202,45,50,47,66,33,34,89
161488202,61,41,34,55,27,31,77
161538202,58,38,30,63,81,34,71
161588202,44,36,29,140,74,32,120
161638202,40,37,28,219,41,32,158
161688202,39,36,27,405,27,94,182
161738202,38,36,29,173,23,72,199
161788202,70,36,41,86,22,45,135
161838202,99,38,52,66,23,71,97
161888202,77,38,54,59,23,47,80
161938202,56,37,48,59,22,38,81
161988202,44,36,35,51,22,34,73
162038202,45,36,31,48,22,32,66
162088202,41,40,31,47,24,32,233
162138202,40,40,44,83,52,36,266
162188202,113,134,111,80,52,70,193
162238202,112,136,226,86,200,83,164
162288202,123,210,307,87,171,69,181
162338202,83,129,180,62,100,46,146
162388202,58,81,78,65,142,46,101
162438202,45,51,44,58,221,52,82
162488202,42,42,33,89,186,52,73
162538202,40,38,29,105,173,48,82
162588202,38,37,29,258,96,40,123
162638202,39,37,28,511,50,44,186
162688202,38,36,28,257,31,48,217
162738202,41,36,28,116,26,47,194
162788202,119,38,64,73,24,50,125
162838202,145,41,74,62,25,44,103
162888202,79,38,50,65,29,35,83
162938202,52,36,36,61,26,33,92
162988202,42,36,31,52,22,31,78
163038202,40,37,30,47,53,30,114
163088202,39,42,53,62,177,35,229
163138202,60,76,72,64,254,50,178
163188202,265,147,135,76,126,64,162
163238202,205,166,183,103,222,90,124
163288202,125,273,296,91,120,56,107
163338202,66,122,132,70,59,39,82
163388202,49,65,61,74,37,33,74
163438202,43,46,38,71,26,32,80
163488202,40,39,32,66,40,31,82
163538202,39,37,29,118,66,33,72
163588202,38,37,28,351,42,32,103
163638202,38,36,28,307,32,90,157
163688202,38,36,28,149,24,70,170
163738202,70,36,34,81,22,47,129
163788202,105,37,50,59,24,70,96
163838202,69,37,54,56,22,49,77
163888202,49,37,43,61,21,37,77
163938202,42,36,33,55,21,33,81
163988202,39,36,31,49,21,31,78
164038202,38,39,30,47,91,33,195
164088202,40,43,43,55,158,37,250
164138202,85,76,65,83,85,35,188
164188202,207,107,109,78,103,74,175
164238202,169,223,210,101,158,69,116
164288202,125,224,165,84,92,45,111
164338202,87,110,84,114,66,35,87
164388202,54,60,46,77,37,33,74
164438202,58,44,34,61,26,32,67
164488202,71,39,30,79,25,34,66
164538202,50,37,29,95,32,33,64
164588202,58,37,28,207,26,33,71
164638202,47,37,28,251,25,48,101
164688202,45,38,32,138,22,50,131
164738202,75,38,41,78,22,39,104
164788202,124,41,83,56,24,58,83
164838202,125,46,106,55,24,46,73
164888202,67,40,57,56,22,36,69
164938202,50,37,38,50,21,32,90
164988202,42,36,31,48,21,30,88
165038202,40,40,29,48,22,30,190
165088202,39,40,53,55,67,30,206
165138202,145,82,57,61,45,41,140
165188202,182,168,113,85,84,77,183
165238202,177,157,171,84,328,95,183
165288202,118,194,167,69,144,57,212
165338202,65,89,74,76,101,40,164
165388202,47,53,43,59,114,35,137
165438202,41,42,33,71,165,34,117
165488202,39,38,30,148,97,34,105
165538202,38,37,29,337,91,33,152
165588202,39,47,29,829,47,39,189
165638202,43,41,28,378,30,61,193
165688202,47,38,31,153,24,53,143
165738202,113,42,86,84,24,57,104
165788202,93,41,82,67,29,45,86
165838202,59,39,52,71,28,36,79
165888202,49,37,37,59,25,34,89
165938202,42,36,31,50,22,30,78
165988202,40,37,29,48,22,31,142
166038202,38,40,39,56,74,31,226
166088202,134,115,126,58,77,46,148
166138202,149,160,153,113,124,63,148
166188202,128,180,190,80,199,76,129
166238202,86,158,181,62,113,48,187
166288202,57,100,91,72,52,36,123
166338202,49,57,48,61,32,33,92
166388202,48,44,34,95,48,31,78
166438202,43,39,30,128,84,32,72
166488202,40,37,29,261,59,35,101
166538202,39,37,28,694,45,61,150
166588202,38,36,28,426,31,67,164
166638202,39,38,34,301,25,56,139
166688202,166,42,82,142,25,57,101
166738202,107,45,88,92,26,53,83
166788202,61,40,50,86,28,40,75
166838202,45,37,36,61,23,36,100
166888202,41,36,32,51,28,32,77
166938202,40,36,37,52,79,32,199
166988202,40,60,42,60,113,34,193
167038202,160,125,175,57,108,78,143
167088202,131,231,225,80,302,136,106
167138202,128,294,280,96,180,85,89
167188202,83,251,220,75,76,49,130
167238202,71,110,95,98,41,44,94
167288202,78,60,49,72,28,38,80
167338202,74,44,35,112,79,34,72
167388202,54,39,31,173,124,38,69
167438202,43,37,30,412,71,36,144
167488202,54,37,29,456,39,96,249
167538202,48,36,29,199,27,83,262
167588202,100,37,46,98,24,51,181
167638202,141,38,60,76,26,64,117
167688202,87,38,53,76,25,55,86
167738202,66,37,37,62,22,41,84
167788202,56,36,33,54,21,36,75
167838202,45,36,29,48,23,36,82
167888202,41,43,44,49,190,46,197
167938202,52,81,69,54,316,59,180
167988202,147,171,226,72,170,67,165
168038202,142,221,147,74,156,86,139
168088202,143,245,176,86,107,71,229
168138202,81,117,120,100,50,45,171
168188202,52,63,60,85,31,36,114
168238202,50,45,38,59,24,34,89
168288202,82,39,32,77,47,32,93
168338202,53,37,30,190,124,32,110
168388202,43,37,29,269,73,32,155
168438202,62,36,28,424,38,92,183
168488202,46,36,28,216,27,64,172
168538202,90,36,46,103,26,45,120
168588202,109,39,63,67,23,66,91
168638202,94,38,57,60,25,58,78
168688202,64,37,38,67,22,40,97
168738202,49,36,32,62,21,37,99
168788202,41,36,30,51,21,32,81
168838202,39,36,31,48,24,31,193
168888202,39,46,53,51,43,33,216
168938202,218,101,74,55,36,48,180
168988202,232,173,184,77,172,69,179
169038202,162,178,194,84,272,68,121
169088202,224,207,324,94,181,61,189
169138202,151,95,124,77,75,42,125
169188202,76,56,58,67,40,34,94
169238202,51,43,38,78,46,33,78
169288202,42,38,31,117,134,37,71
169338202,39,37,30,244,80,35,92
169388202,38,36,28,396,54,48,130
169438202,43,37,28,277,32,73,145
169488202,42,38,30,143,25,60,125
169538202,99,37,41,80,23,50,89
169588202,109,42,78,65,26,50,76
169638202,86,39,58,62,35,42,68
169688202,55,36,38,56,26,36,78
169738202,45,36,32,50,22,33,77
169788202,40,36,29,49,26,31,72
169838202,38,40,44,53,102,32,199
169888202,39,79,58,51,49,37,164
169938202,159,137,107,71,63,44,136
169988202,165,163,213,97,126,56,126
170038202,139,203,271,84,171,63,154
170088202,89,148,165,72,75,44,152
170138202,55,73,72,77,40,35,124
170188202,44,48,42,57,27,33,101
170238202,40,41,33,71,108,32,119
170288202,39,38,30,134,106,33,124
170338202,38,36,30,493,77,35,200
170388202,38,37,29,470,40,84,237
170438202,39,36,28,245,27,72,212
170488202,77,36,41,115,24,53,147
170538202,114,40,60,74,26,62,104
170588202,113,38,50,60,23,55,86
170638202,71,37,36,65,22,39,89
170688202,54,36,31,58,24,36,83
170738202,43,36,29,50,24,31,74
170788202,40,41,29,48,44,31,189
170838202,39,52,52,61,70,33,172
170888202,281,133,94,79,58,43,165
170938202,265,180,162,84,200,63,165
170988202,202,232,227,118,177,61,122
171038202,107,192,165,84,101,45,153
171088202,61,89,71,66,49,36,113
171138202,46,54,42,60,32,35,88
171188202,41,42,34,82,100,32,76
171238202,39,38,30,124,87,36,70
171288202,38,37,29,274,47,36,105
171338202,40,35,28,442,30,77,147
171388202,38,36,28,210,24,62,138
171438202,66,37,33,102,22,48,106
171488202,101,38,61,71,25,60,85
171538202,97,37,45,64,23,48,79
171588202,63,36,35,62,22,37,73
171638202,54,36,31,55,21,34,80
171688202,43,36,29,50,21,31,71
171738202,40,36,29,49,27,31,104
171788202,39,50,42,55,109,30,199
171838202,144,102,59,57,61,33,152
171888202,167,173,91,94,116,76,142
171938202,160,193,146,91,236,78,108
171988202,118,228,225,157,132,53,170
172038202,69,103,99,110,60,38,117
172088202,48,58,50,89,36,34,109
172138202,42,44,35,70,26,32,92
172188202,40,39,31,79,69,31,100
172238202,38,37,29,86,40,31,155
172288202,38,36,28,141,40,35,207
172338202,46,36,28,206,27,82,197
172388202,41,36,28,121,23,59,166
172438202,40,36,51,70,21,46,115
172488202,48,35,61,54,21,62,84
172538202,66,37,68,52,23,48,75
172588202,65,37,45,273,22,37,74
172638202,47,36,34,121,24,34,78
172688202,41,37,30,72,27,32,67
172738202,39,36,29,54,105,31,66
172788202,38,42,40,50,157,35,118
172838202,42,44,55,51,184,41,124
172888202,189,116,99,63,80,34,168
172938202,177,189,176,100,197,52,153
172988202,213,320,328,109,183,65,109
173038202,161,285,195,92,153,57,122
173088202,144,154,95,96,82,43,90
173138202,221,75,49,67,42,43,77
173188202,184,50,34,70,28,34,71
173238202,96,40,30,66,23,31,68
173288202,57,37,30,91,69,32,81
173338202,44,37,29,142,43,31,128
173388202,54,36,28,185,28,94,189
173438202,44,36,28,134,23,81,237
173488202,40,37,50,78,22,50,187
173538202,111,39,55,56,21,66,121
173588202,88,41,75,54,22,53,103
173638202,78,41,68,53,21,39,87
173688202,55,37,43,52,21,37,76
173738202,43,37,33,52,20,31,69
173788202,40,36,47,48,53,31,102
173838202,39,50,49,49,86,32,228
173888202,47,70,77,56,60,31,168
173938202,289,197,235,90,121,42,162
173988202,308,262,203,82,150,61,121
174038202,190,235,230,88,154,54,161
174088202,132,127,146,337,67,39,110
174138202,171,66,66,170,36,33,87
174188202,154,46,40,90,27,34,76
174238202,105,40,32,72,23,31,70
174288202,60,37,30,85,34,30,64
174338202,45,36,29,227,30,30,77
174388202,94,36,28,165,24,62,128
174438202,62,36,45,106,22,60,142
174488202,66,36,58,67,21,43,104
174538202,125,38,88,57,24,58,83
174588202,102,42,87,55,22,50,70
174638202,59,38,49,59,22,38,67
174688202,45,37,35,53,22,35,70
174738202,40,36,31,51,21,33,67
174788202,39,40,42,48,68,33,113
174838202,38,47,38,51,99,36,170
174888202,154,106,95,57,69,36,146
174938202,175,239,219,71,268,71,135
174988202,156,230,247,97,248,80,104
175038202,109,227,244,77,119,51,213
175088202,73,101,96,75,54,37,139
175138202,70,57,50,58,33,36,100
175188202,114,43,35,59,41,32,82
175238202,81,38,31,87,37,32,81
175288202,52,37,29,245,31,30,84
175338202,42,36,28,269,26,55,122
175388202,93,36,28,149,22,71,135
175438202,62,36,34,79,22,55,104
175488202,135,39,55,58,22,48,81
175538202,106,38,50,63,26,64,72
175588202,73,37,38,65,23,45,69
175638202,55,36,32,53,22,42,79
175688202,44,36,30,49,22,34,70
175738202,40,42,70,47,21,33,171
175788202,39,55,58,50,68,32,194
175838202,232,128,105,56,73,39,144
175888202,158,223,176,69,212,85,105
175938202,162,339,243,88,187,70,108
175988202,98,207,166,79,105,49,185
176038202,74,106,84,65,50,38,122
176088202,51,59,46,58,32,36,92
176138202,120,44,34,92,25,31,94
176188202,83,39,30,100,70,31,91
176238202,53,37,29,255,102,34,151
176288202,66,37,30,370,53,55,194
176338202,47,37,29,265,31,64,207
176388202,43,37,29,120,24,53,171
176438202,97,37,48,74,23,47,114
176488202,74,37,48,60,25,54,83
176538202,63,37,41,61,24,43,70
176588202,50,36,32,57,24,36,92
176638202,42,36,30,50,22,32,78
176688202,39,38,29,47,65,31,99
176738202,39,44,33,53,49,32,205
176788202,65,75,55,54,43,33,150
176838202,169,148,101,77,135,55,124
176888202,191,250,201,76,214,47,99
176938202,119,276,158,80,130,43,204
176988202,73,132,79,67,58,35,139
177038202,50,67,44,57,34,32,100
177088202,107,47,33,53,111,32,82
177138202,86,40,30,114,109,34,73
177188202,54,37,29,276,76,33,88
177238202,44,37,28,461,44,36,152
177288202,40,36,28,288,29,80,188
177338202,38,36,28,145,24,53,169
177388202,74,37,47,82,22,41,115
177438202,82,38,60,69,26,50,89
177488202,62,37,50,64,26,43,80
177538202,47,36,36,71,23,35,94
177588202,42,36,31,56,22,33,77
177638202,39,36,29,49,27,31,71
177688202,38,42,29,49,27,31,156
177738202,38,43,71,53,90,32,245
177788202,267,129,111,65,51,35,184
177838202,251,210,184,96,171,58,149
177888202,149,278,196,92,340,115,124
177938202,465,236,142,98,130,64,143
177988202,273,103,65,100,58,43,176
178038202,116,58,40,69,34,35,133
178088202,64,44,32,77,127,34,112
178138202,46,39,29,92,192,40,95
178188202,41,37,29,293,94,36,144
178238202,39,36,28,405,46,43,198
178288202,39,36,28,244,29,68,221
178338202,49,36,32,112,23,52,166
178388202,87,37,42,69,22,60,112
178438202,65,37,52,58,23,48,86
178488202,48,37,41,61,22,37,75
178538202,42,36,32,53,21,34,83
178588202,39,36,30,49,27,31,73
178638202,38,40,39,47,96,32,107
178688202,38,44,45,48,168,37,234
178738202,42,122,75,58,83,34,166
178788202,213,222,184,88,101,71,148
178838202,226,273,207,101,141,58,106
178888202,163,274,238,101,135,54,129
178938202,97,114,98,110,61,39,108
178988202,58,62,50,68,42,34,140
179038202,49,45,35,56,53,36,98
179088202,43,39,30,96,71,33,82
179138202,40,37,29,73,119,32,92
179188202,38,36,28,151,61,33,162
179238202,77,36,28,122,35,62,200
179288202,53,36,33,108,25,75,244
179338202,132,40,58,72,24,47,163
179388202,136,40,69,66,22,65,111
179438202,102,49,109,62,28,56,85
179488202,60,41,55,58,27,41,84
179538202,46,39,38,52,95,36,88
179588202,40,37,36,49,192,37,77
179638202,39,46,40,49,96,35,184
179688202,48,80,78,52,64,32,155
179738202,340,168,172,77,130,48,155
179788202,335,262,238,85,208,57,110
179838202,306,349,390,107,143,62,108
179888202,228,170,150,100,67,43,166
179938202,101,80,66,83,49,34,132
179988202,58,50,40,65,45,33,95
180038202,45,41,32,77,96,33,101
180088202,40,37,29,83,122,34,78
180138202,38,36,29,265,65,33,118
180188202,38,36,29,162,37,90,151
180238202,38,36,28,141,26,84,157
180288202,73,36,40,77,24,59,113
180338202,94,37,70,67,22,67,89
180388202,114,39,75,60,23,55,90
180438202,71,37,49,58,24,40,96
180488202,53,36,37,51,29,37,79
180538202,44,36,32,49,154,34,72
180588202,40,39,58,47,113,34,140
180638202,40,54,55,275,87,35,187
180688202,178,197,196,136,165,41,141
180738202,196,284,278,132,213,57,106
180788202,187,357,315,132,231,96,88
180838202,223,414,318,89,134,70,129
180888202,105,168,120,89,67,49,144
180938202,61,79,58,89,51,48,119
180988202,49,51,40,92,131,40,190
181038202,42,42,32,197,85,37,146
181088202,39,42,46,206,54,39,287
181138202,42,38,33,299,37,110,402
181188202,40,38,49,130,27,85,341
181238202,129,40,61,77,24,54,214
181288202,148,97,82,67,31,60,146
181338202,83,59,54,76,26,41,131
181388202,53,44,37,58,28,38,135
181438202,43,38,31,50,107,33,97
181488202,39,38,36,48,69,32,128
181538202,39,42,56,55,165,36,237
181588202,53,137,84,64,120,44,203
181638202,149,217,188,85,247,57,149
181688202,167,399,276,112,197,57,111
181738202,171,361,256,109,146,70,179
181788202,93,159,108,93,65,47,130
181838202,56,76,53,65,36,37,128
181888202,45,50,36,60,27,33,134
181938202,41,41,31,98,159,37,107
181988202,39,37,29,291,84,38,112
182038202,61,37,28,431,44,36,191
182088202,47,36,29,312,29,85,200
182138202,47,37,29,134,24,61,162
182188202,92,38,53,79,22,60,112
182238202,86,38,53,62,23,64,94
182288202,76,37,39,62,22,42,86
182338202,55,36,32,54,21,39,98
182388202,44,36,30,49,24,32,79
182438202,40,38,43,47,57,32,162
182488202,39,61,50,48,59,34,198
182538202,171,112,92,57,117,42,173
182588202,219,227,214,86,218,52,146
182638202,221,241,226,289,300,74,103
182688202,246,263,254,222,177,73,160
182738202,193,134,128,121,118,46,184
182788202,93,69,60,78,58,36,164
182838202,56,47,38,61,38,35,135
182888202,44,40,32,77,173,33,121
182938202,40,37,29,173,91,31,130
182988202,39,37,28,290,51,34,216
183038202,38,36,36,146,31,117,290
183088202,38,37,47,99,24,86,227
183138202,87,37,77,65,23,62,143
183188202,131,39,66,60,26,68,105
183238202,87,38,68,53,22,46,90
183288202,54,37,42,52,21,38,108
183338202,44,36,33,48,23,32,86
183388202,41,36,30,48,22,31,73
183438202,38,46,44,49,42,31,204
183488202,38,50,58,56,103,38,242
183538202,236,136,125,73,75,52,191
183588202,222,167,165,78,168,54,165
183638202,189,211,168,86,244,58,184
183688202,95,132,128,77,102,44,150
183738202,57,68,59,68,49,35,109
183788202,53,47,38,196,31,33,86
183838202,73,40,32,118,98,33,77
183888202,50,37,29,138,127,32,73
183938202,42,37,28,346,69,32,111
183988202,40,36,28,439,37,85,161
184038202,38,36,28,184,26,81,139
184088202,57,37,38,94,23,57,105
184138202,93,38,61,69,23,63,84
184188202,96,38,56,57,22,45,81
184238202,58,37,40,61,27,36,97
184288202,48,37,32,51,23,34,83
184338202,42,36,29,49,23,30,75
184388202,40,36,29,48,143,33,123
184438202,39,43,42,50,86,33,288
184488202,110,95,64,58,75,37,186
184538202,239,170,150,81,213,80,165
184588202,205,178,163,88,165,60,125
184638202,137,172,162,74,88,44,159
184688202,73,83,71,81,44,36,110
184738202,49,52,41,60,29,32,93
184788202,42,42,33,52,46,31,87
184838202,40,38,30,78,75,32,100
184888202,38,37,29,116,101,34,134
184938202,38,36,29,318,53,36,186
184988202,54,36,28,204,32,90,204
185038202,44,36,29,99,25,64,166
185088202,114,41,70,65,23,51,112
185138202,122,53,53,59,23,63,102
185188202,68,50,57,62,22,43,105
185238202,50,44,37,55,21,38,114
185288202,42,38,32,52,21,32,89
185338202,40,37,29,47,21,31,88
185388202,38,45,38,47,21,31,248
185438202,40,80,66,57,55,35,200
185488202,219,170,127,84,191,65,204
185538202,226,202,188,91,182,56,178
185588202,161,213,253,92,152,53,271
185638202,82,115,108,74,66,41,168
185688202,54,62,53,71,37,34,118
185738202,50,45,36,78,26,33,89
185788202,42,39,31,116,82,30,92
185838202,41,37,29,233,161,38,119
185888202,40,36,30,399,78,42,144
185938202,39,36,28,193,40,90,164
185988202,45,36,29,101,27,78,122
186038202,129,40,57,70,24,73,90
186088202,97,42,48,63,24,59,89
186138202,64,39,39,67,26,40,99
186188202,46,37,32,56,29,36,112
186238202,41,36,29,52,100,32,81
186288202,39,41,48,50,186,35,101
186338202,39,45,37,52,85,33,198
186388202,41,63,61,54,92,34,161
186438202,121,131,130,84,135,67,143
186488202,164,224,167,99,212,60,124
186538202,106,197,185,78,230,85,230
186588202,67,116,87,63,95,52,172
186638202,96,62,46,68,49,37,124
186688202,57,45,34,64,111,34,97
186738202,46,39,30,118,82,33,86
186788202,40,37,29,291,78,31,75
186838202,53,40,28,605,53,40,114
186888202,43,38,28,312,31,85,111
186938202,49,37,29,161,25,73,84
186988202,109,39,69,84,23,58,74
187038202,111,42,74,69,24,49,74
187088202,69,39,46,74,27,38,77
187138202,50,37,35,58,24,34,96
187188202,42,36,30,49,35,32,88
187238202,39,46,41,47,27,32,150
187288202,39,47,69,48,27,33,206
187338202,80,82,87,62,29,41,130
187388202,268,163,159,157,236,67,96
187438202,210,147,165,414,407,105,118
187488202,185,233,235,354,175,65,133
187538202,105,111,99,193,250,56,134
187588202,323,108,66,123,201,61,120
187638202,191,65,49,107,106,47,86
187688202,91,50,52,88,66,37,76
187738202,58,43,36,205,79,34,70
187788202,45,47,31,341,61,33,77
187838202,46,54,33,376,67,38,77
187888202,41,60,30,274,46,40,72
187938202,40,43,30,160,44,39,68
187988202,109,42,58,92,33,40,66
188038202,67,44,73,72,40,38,73
188088202,51,39,45,59,32,36,81
188138202,42,37,34,65,24,32,73
188188202,39,36,30,56,27,32,82
188238202,38,36,30,67,23,31,137
188288202,42,51,74,78,142,40,282
188338202,54,87,81,115,181,53,184
188388202,59,141,115,176,308,104,121
188438202,148,246,241,136,251,97,184
188488202,91,174,152,118,112,56,248
188538202,69,90,67,125,61,44,159
188588202,49,54,40,102,49,39,119
188638202,116,42,33,176,72,40,116
188688202,79,38,31,178,77,44,133
188738202,51,38,29,343,86,39,185
188788202,43,44,29,920,45,90,224
188838202,44,40,29,401,36,70,256
188888202,69,38,36,186,28,54,211
188938202,95,40,62,98,25,67,136
188988202,79,39,56,92,28,44,102
189038202,65,39,60,78,23,36,103
189088202,60,38,48,61,22,36,95
189138202,45,37,35,51,29,33,79
189188202,41,37,37,52,94,33,222
189238202,41,55,77,54,137,45,242
189288202,170,117,64,59,85,47,157
189338202,157,180,160,84,139,66,132
189388202,156,221,166,102,186,82,156
189438202,82,119,140,77,84,50,196
189488202,55,64,64,82,42,38,141
189538202,52,45,39,72,28,36,100
189588202,45,40,33,80,39,31,79
189638202,41,37,30,177,120,32,76
189688202,39,37,29,473,107,40,185
189738202,40,39,29,742,51,97,230
189788202,38,38,29,285,31,70,227
189838202,144,38,54,165,25,48,150
189888202,207,50,102,93,30,51,109
189938202,175,41,65,82,25,55,85
189988202,95,38,40,77,27,39,106
190038202,61,36,32,60,22,33,90
190088202,46,39,34,50,160,37,145
190138202,42,50,38,52,168,38,248
190188202,56,87,50,61,181,41,177
190238202,280,204,192,89,120,60,143
190288202,217,240,243,117,136,60,107
190338202,193,307,230,98,158,52,147
190388202,122,136,102,83,70,40,120
190438202,66,69,51,74,38,34,91
190488202,48,47,36,449,36,33,77
190538202,41,40,32,238,80,33,79
190588202,39,37,29,288,51,32,72
190638202,43,36,28,458,32,51,141
190688202,40,36,28,212,25,78,188
190738202,39,36,28,101,23,59,146
190788202,122,43,75,67,23,54,103
190838202,101,41,77,58,24,60,84
190888202,78,38,52,62,24,43,78
190938202,64,37,37,57,25,39,106
190988202,46,36,31,52,45,34,85
191038202,41,36,29,48,245,39,105
191088202,40,42,46,52,172,39,202
191138202,68,74,53,68,113,38,185
191188202,245,154,82,83,133,50,146
191238202,214,201,167,74,181,55,105
191288202,142,226,267,81,148,58,101
191338202,85,144,141,77,116,45,110
191388202,55,72,64,67,60,36,132
191438202,44,155,40,54,34,33,143
191488202,40,75,32,63,118,33,109
191538202,39,49,30,86,94,33,95
191588202,38,40,28,186,79,32,194
191638202,42,37,28,433,41,68,242
191688202,40,36,28,272,28,73,238
191738202,38,36,28,132,23,52,180
191788202,50,36,43,75,22,56,120
191838202,87,40,67,56,23,56,102
191888202,86,38,53,58,25,45,84
191938202,56,37,37,53,23,37,128
191988202,45,36,31,50,21,33,94
192038202,40,36,29,47,27,31,79
192088202,39,36,31,47,36,31,166
192138202,38,40,37,61,150,33,239
192188202,199,102,81,72,69,37,194
192238202,202,137,107,92,75,60,170
192288202,179,265,216,87,207,60,148
192338202,142,206,193,185,187,46,198
192388202,130,115,93,133,125,48,134
192438202,79,62,48,78,58,40,106
192488202,56,45,35,60,34,33,94
192538202,44,39,31,70,64,32,89
192588202,40,37,29,100,129,36,138
192638202,40,37,28,394,69,32,225
192688202,41,42,28,634,38,85,277
192738202,39,38,28,268,26,62,284
192788202,65,37,42,117,24,49,205
192838202,113,38,48,72,22,64,132
192888202,92,38,48,60,23,49,102
192938202,70,37,38,62,21,37,94
192988202,49,36,32,58,22,34,89
193038202,42,36,29,50,22,31,78
193088202,39,36,29,48,40,31,142
193138202,38,46,44,51,95,32,232
193188202,174,74,66,60,102,40,186
193238202,190,94,124,74,165,46,153
193288202,155,180,204,99,135,63,119
193338202,150,206,190,79,80,44,215
193388202,83,102,123,83,41,35,148
193438202,66,57,58,74,29,33,104
193488202,55,44,37,58,24,33,88
193538202,62,39,32,108,60,35,78
193588202,46,37,29,122,61,33,95
193638202,41,37,29,453,45,35,141
193688202,59,37,28,418,28,90,230
193738202,46,36,28,187,23,60,222
193788202,59,36,39,90,22,50,153
193838202,129,39,59,62,25,64,109
193888202,87,42,66,56,23,52,88
193938202,58,37,42,56,26,38,104
193988202,45,36,33,54,23,37,97
194038202,40,36,30,49,22,31,80
194088202,38,36,31,49,24,31,152
194138202,38,41,33,53,101,32,200
194188202,233,102,87,56,58,36,168
194238202,262,128,172,78,131,66,160
194288202,182,157,155,78,301,91,142
194338202,140,257,239,66,162,60,305
194388202,86,123,117,66,69,40,188
194438202,64,64,56,60,52,34,126
194488202,53,46,37,71,135,34,94
194538202,44,39,30,92,109,34,79
194588202,40,37,29,159,69,34,91
194638202,38,36,29,227,41,40,138
194688202,38,37,28,399,27,75,188
194738202,38,36,28,206,23,51,179
194788202,45,39,32,97,21,51,128
194838202,100,39,57,66,22,54,94
194888202,94,39,58,57,30,42,85
194938202,70,37,45,54,28,36,74
194988202,49,139,34,52,23,35,112
195038202,41,70,30,49,22,32,84
195088202,39,47,30,46,49,30,109
195138202,38,48,34,56,64,32,225
195188202,61,75,60,57,79,37,160
195238202,211,102,115,73,121,46,128
195288202,203,161,165,82,168,55,117
195338202,181,193,211,77,247,53,252
195388202,87,100,95,82,106,38,174
195438202,56,57,49,63,50,33,123
195488202,116,44,35,61,31,33,97
195538202,105,39,31,92,116,33,81
195588202,60,37,29,135,86,33,126
195638202,45,36,29,291,48,32,193
195688202,41,37,28,270,30,76,231
195738202,39,36,28,132,25,52,219
195788202,51,36,34,75,22,40,145
195838202,91,39,69,59,26,60,107
195888202,58,38,52,53,22,44,93
195938202,45,37,37,61,25,36,113
195988202,42,36,31,53,22,34,95
196038202,39,36,29,48,21,31,80
196088202,38,37,31,47,27,30,182
196138202,38,40,53,51,80,33,221
196188202,233,88,89,55,50,40,168
196238202,293,151,155,102,162,68,153
196288202,189,185,193,96,188,62,129
196338202,125,159,156,68,123,52,160
196388202,67,84,69,80,55,38,110
196438202,47,52,41,66,33,36,83
196488202,58,42,33,60,25,31,72
196538202,46,38,29,103,58,31,67
196588202,40,37,29,192,37,32,95
196638202,57,36,28,288,27,68,134
196688202,44,36,28,150,23,73,167
196738202,41,36,29,85,21,60,128
196788202,83,37,66,59,21,69,93
196838202,99,41,65,55,25,55,84
196888202,65,39,46,68,25,40,77
196938202,51,37,35,57,25,37,106
196988202,42,36,31,50,22,32,98
197038202,40,36,29,48,39,31,97
197088202,39,51,45,113,119,31,195
197138202,38,52,58,76,123,36,171
197188202,245,105,89,85,139,67,126
197238202,260,256,211,91,197,64,100
197288202,401,251,235,128,199,76,138
197338202,163,118,108,95,84,48,139
197388202,78,63,53,84,42,36,124
197438202,52,45,36,64,30,35,108
197488202,45,39,31,286,24,31,86
197538202,41,37,30,151,65,32,102
197588202,39,36,29,238,55,32,175
197638202,38,37,28,387,36,66,214
197688202,48,36,28,213,26,84,256
197738202,61,36,36,109,22,57,202
197788202,97,38,78,69,24,76,134
197838202,89,37,59,58,24,59,103
197888202,61,37,50,58,21,41,114
197938202,56,36,35,54,22,36,96
197988202,44,36,31,50,21,32,80
198038202,40,37,29,48,26,31,148
198088202,39,45,39,49,64,34,254
198138202,87,87,67,56,52,33,169
198188202,181,124,121,87,99,46,165
198238202,196,139,178,113,202,53,127
198288202,147,222,242,84,135,51,210
198338202,94,99,96,79,60,38,135
198388202,57,57,49,72,34,33,100
198438202,51,43,35,57,25,31,80
198488202,46,38,31,75,31,32,112
198538202,41,37,29,108,33,32,130
198588202,51,37,28,394,27,45,166
198638202,44,36,28,215,23,83,193
198688202,40,36,29,102,21,57,162
198738202,120,37,56,65,22,59,110
198788202,89,37,54,57,24,63,97
198838202,70,178,40,60,22,43,90
198888202,58,85,33,63,21,40,99
198938202,44,52,30,54,21,33,81
198988202,40,41,29,48,21,31,91
199038202,39,48,30,51,24,32,226
199088202,52,66,45,52,70,32,171
199138202,201,130,115,90,134,50,152
199188202,238,181,146,73,149,64,138
199238202,128,200,176,77,180,60,185
199288202,105,121,91,75,80,47,139
199338202,60,65,48,76,41,35,106
199388202,45,46,35,57,28,32,100
199438202,41,40,30,87,31,30,80
199488202,39,37,29,133,66,32,85
199538202,38,36,28,388,44,32,103
199588202,40,36,28,255,29,93,152
199638202,39,37,30,137,23,72,138
199688202,89,37,51,77,23,50,100
199738202,118,39,63,65,27,67,92
199788202,89,37,46,55,25,50,92
199838202,56,37,35,54,22,37,122
199888202,44,36,30,56,23,33,93
199938202,40,36,29,49,21,30,78
199988202,39,45,29,48,96,32,180
200038202,39,51,61,54,60,32,207
200088202,221,98,114,67,43,37,149
200138202,229,168,162,93,236,48,113
200188202,168,176,281,89,178,49,115
200238202,95,135,207,66,84,40,150
200288202,59,70,91,72,42,33,105
200338202,69,47,48,57,29,32,84
200388202,130,39,35,75,50,30,87
200438202,74,37,30,94,80,31,74
200488202,50,36,29,217,44,32,109
200538202,44,36,28,329,29,67,165
200588202,50,36,28,246,23,80,190
200638202,43,36,29,111,22,59,165
200688202,117,40,65,68,22,71,113
200738202,81,38,59,58,23,57,96
200788202,77,37,46,61,22,42,81
200838202,52,36,35,57,22,38,107
200888202,43,36,30,50,21,32,84
200938202,41,36,29,48,26,31,103
200988202,39,41,31,50,108,34,220
201038202,42,63,78,57,84,36,156
201088202,222,168,111,88,107,83,125
201138202,214,189,170,281,182,63,104
201188202,175,230,198,195,184,61,151
201238202,102,155,101,117,84,41,139
201288202,60,75,51,80,46,34,116
201338202,45,49,35,57,37,33,85
201388202,40,41,31,70,94,32,74
201438202,51,46,94,105,229,39,68
201488202,42,41,52,233,147,41,97
201538202,39,38,36,470,62,77,148
201588202,39,36,30,300,34,56,132
201638202,42,36,30,128,26,45,96
201688202,105,39,53,74,24,51,76
201738202,115,38,60,59,24,39,86
201788202,74,37,46,71,22,36,75
201838202,50,36,34,65,21,34,124
201888202,42,36,31,53,21,31,90
201938202,39,36,29,48,23,30,104
201988202,38,41,30,49,22,30,234
202038202,39,43,54,57,32,31,193
202088202,193,109,94,72,81,44,129
202138202,193,199,162,90,258,61,102
202188202,179,286,241,87,193,54,107
202238202,115,176,159,74,269,52,171
202288202,72,84,70,66,258,59,115
202338202,108,52,42,87,300,57,89
202388202,113,42,33,94,276,76,77
202438202,63,38,29,112,216,114,102
202488202,46,37,29,125,208,100,204
202538202,50,37,28,478,118,62,281
202588202,54,36,28,777,53,44,314
202638202,44,36,28,355,39,48,295
202688202,61,37,29,147,29,44,182
202738202,96,38,43,83,25,34,146
202788202,82,37,45,64,23,36,124
202838202,58,37,36,73,23,32,124
202888202,44,36,31,56,22,31,105
202938202,40,36,29,51,23,30,85
202988202,39,38,30,57,146,32,186
203038202,38,44,54,84,137,35,236
203088202,156,101,106,75,83,66,183
203138202,189,150,130,93,217,69,132
203188202,139,175,220,94,218,75,119
203238202,98,167,152,76,103,49,145
203288202,59,80,67,62,49,36,101
203338202,45,51,40,54,30,34,80
203388202,40,41,33,69,25,33,69
203438202,39,38,30,118,74,32,69
203488202,38,37,30,266,54,36,100
203538202,69,36,29,358,34,86,182
203588202,49,37,28,208,26,86,216
203638202,67,36,29,99,23,56,157
203688202,104,39,65,66,22,58,110
203738202,95,38,56,58,22,64,80
203788202,81,37,41,62,22,44,75
203838202,56,36,33,55,21,37,93
203888202,44,36,30,50,21,32,77
203938202,40,37,29,48,34,33,164
203988202,39,40,32,50,50,34,162
204038202,188,96,110,57,55,33,142
204088202,213,175,116,66,127,54,113
204138202,199,225,192,109,186,67,88
204188202,109,213,231,93,132,49,120
204238202,68,138,117,93,59,39,111
204288202,48,69,56,80,35,33,87
204338202,42,47,37,59,25,31,75
204388202,40,40,31,78,53,30,70
204438202,38,37,29,112,71,34,80
204488202,38,37,28,364,48,34,152
204538202,68,37,28,274,31,89,202
204588202,51,36,28,149,24,71,198
204638202,72,36,36,78,22,50,129
204688202,83,38,52,58,25,53,95
204738202,67,37,42,58,23,44,89
204788202,49,36,33,58,21,36,123
204838202,42,36,30,54,20,33,118
204888202,39,36,29,48,21,31,87
204938202,38,42,30,47,58,31,165
204988202,44,46,44,48,98,32,184
205038202,177,112,89,59,56,40,159
205088202,164,146,150,93,160,57,133
205138202,140,235,186,97,170,82,113
205188202,96,225,168,68,82,53,211
205238202,58,106,75,72,46,38,153
205288202,48,58,43,56,29,35,149
205338202,118,44,33,72,75,32,125
205388202,78,39,30,96,91,31,127
205438202,51,37,29,149,85,33,243
205488202,44,37,28,392,51,40,331
205538202,45,36,28,284,31,73,352
205588202,40,36,29,136,24,54,312
205638202,88,37,55,75,22,49,194
205688202,100,38,51,61,24,49,143
205738202,91,38,60,66,22,39,119
205788202,86,36,40,61,22,34,140
205838202,55,36,32,53,25,32,101
205888202,43,36,29,49,22,30,82
205938202,40,37,29,49,45,30,157
205988202,39,46,54,58,58,31,165
206038202,306,79,82,62,40,39,188
206088202,272,101,84,81,100,49,160
206138202,186,173,195,95,206,68,109
206188202,163,193,271,96,105,54,146
206238202,87,91,108,85,49,38,103
206288202,54,54,53,61,31,33,93
206338202,44,43,36,71,33,32,79
206388202,40,39,31,95,115,38,71
206438202,39,37,29,153,109,34,102
206488202,38,37,28,385,61,34,146
206538202,52,36,28,433,34,79,182
206588202,50,36,29,180,25,60,165
206638202,54,36,31,89,22,43,113
206688202,91,37,51,66,26,55,91
206738202,70,38,50,53,24,44,100
206788202,50,37,37,61,22,35,120
206838202,42,36,31,53,22,33,102
206888202,39,37,29,48,21,31,82
206938202,38,37,30,48,48,31,147
206988202,38,40,60,49,36,31,185
207038202,140,86,75,58,33,34,155
207088202,205,109,176,78,127,68,138
207138202,157,226,161,102,195,62,104
207188202,144,224,170,79,200,61,235
207238202,73,98,77,90,83,41,163
207288202,49,56,43,74,44,34,133
207338202,43,44,33,58,29,32,102
207388202,40,39,30,83,82,30,117
207438202,39,37,29,177,71,31,162
207488202,38,37,28,595,44,41,191
207538202,38,36,28,263,29,77,204
207588202,38,36,29,132,25,54,171
207638202,72,36,49,74,22,44,116
207688202,88,37,59,61,24,56,97
207738202,64,37,44,58,27,43,91
207788202,48,39,35,58,23,35,126
207838202,42,38,31,53,21,33,101
207888202,38,37,29,49,38,32,83
207938202,38,39,28,47,31,31,147
207988202,38,55,50,50,36,31,212
208038202,237,109,65,66,37,38,167
208088202,208,183,111,82,114,56,136
208138202,130,170,167,80,207,72,106
208188202,94,139,154,74,147,63,131
208238202,57,70,67,70,63,41,101
208288202,45,47,40,60,36,34,82
208338202,44,40,32,62,26,31,74
208388202,42,38,30,80,50,30,69
208438202,40,36,29,105,94,32,102
208488202,38,36,28,281,46,39,150
208538202,38,36,28,149,29,90,219
208588202,38,36,29,92,23,68,224
208638202,120,39,75,61,22,48,144
208688202,113,39,65,54,23,58,111
208738202,77,37,45,54,23,44,98
208788202,54,36,34,60,22,38,114
208838202,44,36,31,51,20,33,90
208888202,40,36,29,48,56,31,123
208938202,39,48,32,49,123,32,175
208988202,39,57,53,48,62,31,134
209038202,178,90,108,69,145,37,152
209088202,220,259,187,78,185,53,112
209138202,165,241,274,71,201,49,110
209188202,93,123,154,71,86,39,114
209238202,56,65,68,64,43,33,94
209288202,46,46,40,54,29,32,84
209338202,44,40,32,63,41,31,76
209388202,40,37,30,89,48,32,86
209438202,38,36,28,170,35,31,109
209488202,66,36,28,332,26,67,149
209538202,48,36,28,161,23,67,157
209588202,44,36,29,83,20,49,115
209638202,120,39,66,58,22,60,87
209688202,88,37,48,54,23,54,90
209738202,60,36,39,60,21,40,77
209788202,46,36,32,57,21,37,110
209838202,41,36,30,50,21,31,88
209888202,39,36,29,47,36,32,118
209938202,38,47,36,49,110,34,152
209988202,40,66,86,56,69,34,134
210038202,204,150,144,88,160,53,167
210088202,225,192,265,94,158,58,121
210138202,138,212,240,85,114,44,157
210188202,92,120,123,80,53,36,111
210238202,56,64,58,67,32,32,99
210288202,52,45,38,57,25,31,100
210338202,62,39,31,62,78,29,86
210388202,45,37,29,106,47,30,146
210438202,59,36,28,217,46,31,221
210488202,52,36,27,271,30,60,238
210538202,42,36,28,148,24,61,236
210588202,48,45,35,80,22,46,170
210638202,99,40,55,57,22,57,121
210688202,92,37,51,52,22,52,104
210738202,77,38,45,58,21,39,92
210788202,51,36,36,52,21,35,94
210838202,42,36,31,50,21,32,79
210888202,40,41,30,48,21,32,113
210938202,39,45,44,56,92,36,183
210988202,78,89,80,60,65,32,163
211038202,274,140,156,79,172,61,184
211088202,212,193,179,70,170,63,128
211138202,129,158,207,69,90,44,215
211188202,74,82,93,92,44,36,134
211238202,50,51,48,68,29,32,98
211288202,77,42,35,56,24,31,81
211338202,65,38,30,61,22,30,75
211388202,46,38,29,113,112,30,91
211438202,40,37,28,237,60,32,113
211488202,120,36,28,345,34,74,157
211538202,72,36,29,152,25,61,154
211588202,83,36,52,80,24,43,109
211638202,130,36,42,58,22,56,90
211688202,100,37,38,57,22,48,89
211738202,71,37,39,62,21,36,127
211788202,50,36,32,53,21,33,107
211838202,42,36,30,49,21,31,85
211888202,38,42,30,47,26,31,177
211938202,39,46,38,53,93,32,229
211988202,207,110,100,65,67,43,159
212038202,262,161,146,77,212,58,125
212088202,159,278,215,93,195,61,102
212138202,106,194,200,77,108,45,169
212188202,60,92,83,70,53,35,114
212238202,45,55,45,58,33,34,86
212288202,64,43,34,64,41,32,74
212338202,47,38,30,104,40,31,66
212388202,41,37,29,196,46,32,78
212438202,39,36,28,414,30,48,111
212488202,39,36,28,199,24,87,113
212538202,38,36,30,99,22,72,82
212588202,85,36,53,64,22,72,73
212638202,79,39,54,58,22,57,81
212688202,58,37,43,63,22,41,78
212738202,49,36,33,59,21,35,111
212788202,42,36,30,52,21,32,96
212838202,39,37,29,47,25,31,106
212888202,38,40,31,47,33,32,188
212938202,43,46,57,53,53,36,144
212988202,167,147,96,68,101,53,129
213038202,181,198,148,73,140,49,98
213088202,107,180,205,76,200,64,132
213138202,68,110,100,66,87,46,117
213188202,48,61,50,69,44,35,89
213238202,41,45,35,57,32,34,73
213288202,39,39,30,74,89,31,67
213338202,39,37,29,137,115,32,62
213388202,38,36,29,319,60,32,90
213438202,38,36,28,294,35,94,132
213488202,38,36,28,147,25,76,121
213538202,74,37,47,80,22,51,91
213588202,73,37,48,58,22,57,84
213638202,74,40,45,61,26,55,85
213688202,59,37,35,349,24,40,124
213738202,46,36,31,163,22,38,105
213788202,41,36,30,85,22,31,81
213838202,39,40,29,59,73,32,129
213888202,38,45,39,53,41,33,165
213938202,134,141,71,71,65,37,140
213988202,229,208,126,86,188,61,143
214038202,165,252,204,82,176,56,124
214088202,115,222,162,75,73,41,147
214138202,74,126,81,92,38,34,104
214188202,77,65,45,61,28,34,84
214238202,147,46,33,59,24,31,80
214288202,84,39,30,81,42,31,74
214338202,52,37,29,123,55,32,112
214388202,42,37,28,303,38,36,125
214438202,124,36,28,260,26,82,166
214488202,78,36,29,134,23,60,155
214538202,63,36,36,75,22,44,109
214588202,85,38,53,64,22,61,87
214638202,79,37,46,65,21,47,88
214688202,58,36,35,57,21,35,127
214738202,45,36,30,53,21,35,120
214788202,40,36,29,48,20,31,88
214838202,39,37,30,46,30,31,168
214888202,39,58,55,53,102,33,196
214938202,203,106,106,69,61,43,160
214988202,237,205,142,75,140,45,134
215038202,172,175,233,67,237,72,105
215088202,108,122,155,61,112,51,135
215138202,61,65,68,68,52,37,98
215188202,46,46,41,57,33,33,108
215238202,41,40,33,58,109,32,102
215288202,39,38,30,126,64,31,118
215338202,39,36,29,312,56,32,145
215388202,38,36,28,370,33,42,191
215438202,38,36,28,202,24,70,180
215488202,38,36,29,100,22,54,132
215538202,136,39,65,64,23,64,95
215588202,107,38,56,58,22,55,94
215638202,66,38,41,56,21,38,99
215688202,47,36,32,53,21,37,118
215738202,41,36,30,49,20,32,95
215788202,39,36,29,49,94,33,132
215838202,38,42,31,49,82,32,233
215888202,49,75,81,59,64,32,165
215938202,182,182,98,78,123,49,151
215988202,198,238,171,85,166,48,108
216038202,368,231,242,84,145,55,132
216088202,306,114,101,65,64,41,113
216138202,130,62,51,77,36,34,88
216188202,69,45,36,66,26,33,72
216238202,48,39,30,78,34,31,71
216288202,41,37,29,88,59,30,64
216338202,39,36,29,274,40,33,103
216388202,46,36,27,234,27,91,142
216438202,41,36,28,118,23,74,138
216488202,59,36,41,70,22,49,100
216538202,117,46,87,58,24,52,98
216588202,119,40,57,57,25,62,80
216638202,72,37,38,70,22,42,120
216688202,56,36,32,56,24,39,107
216738202,44,36,29,49,22,33,84
216788202,41,44,29,52,99,34,156
216838202,40,57,49,58,83,35,218
216888202,172,112,102,75,56,40,170
216938202,201,195,158,101,165,62,128
216988202,275,171,214,72,184,90,185
217038202,239,111,116,81,175,56,171
217088202,127,61,56,57,92,40,113
217138202,67,45,37,51,80,37,86
217188202,170,39,31,57,93,32,75
217238202,87,37,29,105,127,32,73
217288202,54,36,29,306,74,34,124
217338202,43,36,28,436,40,49,148
217388202,39,37,28,240,27,75,152
217438202,38,36,29,119,22,59,132
217488202,96,38,46,69,22,53,95
217538202,85,38,55,61,22,56,82
217588202,65,37,43,69,22,43,70
217638202,49,36,33,55,23,36,96
217688202,42,36,30,50,23,33,89
217738202,39,35,29,48,21,31,75
217788202,38,41,30,48,55,32,173
217838202,38,48,41,50,84,32,178
217888202,217,168,82,70,61,37,150
217938202,280,150,144,61,139,60,124
217988202,177,159,239,68,228,78,119
218038202,105,137,177,67,103,49,167
218088202,60,70,75,84,50,37,113
218138202,47,47,43,66,32,33,88
218188202,43,40,33,102,33,31,76
218238202,40,38,30,132,38,31,68
218288202,38,37,29,231,81,31,75
218338202,101,36,28,246,42,64,109
218388202,73,36,28,167,28,82,134
218438202,53,36,28,84,24,65,117
218488202,130,37,53,60,22,62,89
218538202,88,40,51,260,22,57,81
218588202,66,37,43,121,22,41,72
218638202,104,38,58,72,26,39,99
218688202,71,37,52,56,23,33,82
218738202,53,37,37,49,22,31,73
218788202,43,43,40,47,51,30,240
218838202,42,50,54,50,91,33,176
218888202,118,135,82,69,101,40,125
218938202,135,127,143,72,136,46,97
218988202,112,157,294,69,218,63,127
219038202,81,96,156,64,96,45,146
219088202,52,55,69,76,49,36,115
219138202,42,43,41,59,33,32,102
219188202,39,39,32,72,56,32,79
219238202,39,37,29,126,49,31,85
219288202,38,36,29,325,41,35,120
219338202,38,36,28,261,28,67,137
219388202,38,36,28,149,23,63,123
219438202,42,36,39,79,22,44,89
219488202,95,38,58,63,22,49,79
219538202,64,37,48,56,26,44,88
219588202,46,36,36,60,26,35,122
219638202,41,36,31,53,40,33,101
219688202,39,36,29,48,62,31,81
219738202,38,39,29,48,73,30,128
219788202,40,49,37,50,77,31,269
219838202,125,106,73,51,51,36,179
219888202,204,224,157,78,179,45,130
219938202,165,224,225,73,197,58,102
219988202,262,230,235,88,114,52,191
220038202,172,102,107,70,54,38,186
220088202,82,57,53,62,41,33,133
220138202,54,44,36,71,57,32,102
220188202,46,38,31,74,44,33,97
220238202,41,37,29,150,38,32,113
220288202,40,36,28,628,29,32,163
220338202,38,36,28,308,24,86,165
220388202,38,36,28,132,22,70,130
220438202,117,39,71,74,21,47,96
220488202,95,38,61,66,23,54,92
220538202,68,38,44,61,23,42,94
220588202,47,36,34,57,21,35,115
220638202,41,36,30,51,21,32,98
220688202,39,36,29,47,21,31,82
220738202,38,46,30,46,34,30,184
220788202,38,81,67,49,36,33,180
220838202,235,133,123,71,113,52,157
220888202,222,215,155,64,165,55,121
220938202,135,214,197,66,149,53,163
220988202,82,109,92,74,69,40,136
221038202,53,60,48,162,38,33,109
221088202,83,44,34,85,27,32,85
221138202,88,39,30,82,52,31,72
221188202,55,37,29,90,40,32,67
221238202,45,36,29,242,37,33,91
221288202,45,36,28,394,28,59,108
221338202,40,36,28,277,22,77,103
221388202,45,192,31,124,22,61,81
221438202,116,121,68,73,21,72,71
221488202,69,65,57,60,22,50,78
221538202,58,46,45,62,21,40,73
221588202,44,39,34,54,21,35,105
221638202,40,37,30,50,21,31,82
221688202,39,37,29,48,21,31,106
221738202,38,52,45,48,49,31,244
221788202,45,96,76,54,51,33,154
221838202,199,169,182,83,141,62,137
221888202,189,186,165,73,188,59,127
221938202,118,214,152,69,109,44,159
221988202,65,100,69,67,50,35,110
222038202,47,57,41,60,34,33,90
222088202,98,44,32,68,31,31,76
222138202,68,38,29,74,71,31,71
222188202,48,36,29,225,50,31,63
222238202,44,36,28,379,33,52,84
222288202,40,36,28,174,25,87,100
222338202,39,37,29,87,23,65,79
222388202,93,37,43,60,21,62,72
222438202,99,38,46,53,24,62,76
222488202,65,39,54,60,22,42,82
222538202,46,37,37,56,21,37,100
222588202,41,36,32,52,21,32,89
222638202,39,36,29,48,21,31,92
222688202,38,42,38,47,21,31,184
222738202,40,73,72,49,33,37,177
222788202,162,139,113,79,149,53,124
222838202,157,221,126,79,179,59,113
222888202,112,170,185,73,126,49,176
222938202,67,92,92,63,57,38,128
222988202,48,54,48,61,34,32,105
223038202,65,42,34,82,28,32,89
223088202,53,38,30,88,69,30,77
223138202,43,37,30,171,52,33,71
223188202,39,36,29,494,39,36,81
223238202,38,36,28,284,27,88,95
223288202,38,36,28,126,22,67,79
223338202,70,36,56,71,22,49,67
223388202,104,40,60,55,24,62,73
223438202,70,38,57,59,22,48,72
223488202,52,37,38,58,26,37,99
223538202,45,36,32,51,26,34,96
223588202,40,36,29,48,157,35,90
223638202,39,47,32,48,70,32,265
223688202,44,44,52,52,41,31,193
223738202,264,107,109,75,55,39,141
223788202,247,217,142,79,199,56,111
223838202,145,144,161,94,181,70,123
223888202,222,140,154,74,82,49,154
223938202,122,71,69,87,42,37,128
223988202,65,48,41,60,29,34,105
224038202,47,41,33,65,45,32,93
224088202,41,38,30,80,73,32,88
224138202,39,37,29,202,53,34,87
224188202,38,87,31,259,33,34,157
224238202,38,62,30,154,25,78,181
224288202,37,45,29,82,22,64,192
224338202,112,40,48,58,21,67,126
224388202,133,39,54,54,28,55,110
224438202,74,38,47,68,26,39,105
224488202,53,36,36,61,24,36,118
224538202,43,36,32,52,22,32,93
224588202,41,36,29,48,30,31,111
224638202,39,45,55,47,50,31,221
224688202,46,70,45,50,47,32,162
224738202,201,142,122,84,113,47,137
224788202,193,225,219,75,182,64,104
224838202,128,225,191,81,164,56,148
224888202,80,133,118,70,71,40,132
224938202,52,68,56,70,38,33,97
224988202,53,47,37,56,27,32,78
225038202,58,40,31,63,23,30,71
225088202,45,36,30,107,60,31,65
225138202,40,37,28,275,36,31,72
225188202,107,37,29,238,26,103,130
225238202,71,36,28,147,23,90,129
225288202,83,36,39,78,22,53,95
225338202,105,38,49,57,25,68,79
225388202,87,39,57,50,23,53,82
225438202,54,38,38,60,23,39,96
225488202,43,35,32,53,22,35,98
225538202,40,36,30,50,21,31,96
225588202,39,41,30,47,21,32,147
225638202,38,45,59,47,124,34,280
225688202,69,116,72,51,94,33,178
225738202,139,237,121,93,134,57,130
225788202,161,186,184,100,130,50,129
225838202,216,225,224,77,170,70,212
225888202,129,101,90,79,72,45,139
225938202,69,57,48,57,42,34,106
225988202,48,44,35,63,62,33,87
226038202,53,38,30,110,168,33,85
226088202,45,37,29,141,78,32,98
226138202,44,37,29,300,65,35,134
226188202,40,36,28,153,35,119,141
226238202,39,37,30,87,25,94,106
226288202,98,39,44,62,24,68,83
226338202,141,43,79,57,28,73,78
226388202,85,39,49,65,24,49,84
226438202,54,37,35,56,22,40,118
226488202,43,36,31,50,76,33,98
226538202,40,37,29,47,92,33,138
226588202,39,47,50,48,93,33,204
226638202,84,95,89,58,62,42,165
226688202,298,206,170,82,172,80,139
226738202,374,286,236,227,178,63,121
226788202,166,226,189,109,139,56,151
226838202,102,112,88,83,73,40,105
226888202,59,60,47,66,71,34,82
226938202,45,45,34,72,134,37,73
226988202,41,39,30,104,70,32,69
227038202,39,37,29,141,51,33,65
227088202,49,36,28,281,34,33,96
227138202,43,36,28,178,25,82,123
227188202,39,36,28,92,22,58,85
227238202,123,37,55,62,23,44,74
227288202,130,37,52,54,24,58,71
227338202,69,37,45,56,22,42,70
227388202,48,37,35,52,22,35,109
227438202,41,36,30,50,21,33,104
227488202,39,36,29,47,21,31,84
227538202,38,44,49,46,96,32,193
227588202,38,66,54,50,53,32,181
227638202,266,151,123,71,77,37,147
227688202,259,232,199,103,211,56,118
227738202,161,209,204,94,192,54,157
227788202,146,126,152,68,95,48,174
227838202,204,66,67,62,47,36,146
227888202,92,46,41,55,30,35,116
227938202,69,40,32,78,72,32,88
227988202,48,37,29,130,80,33,79
228038202,41,36,28,356,52,33,116
228088202,42,36,28,366,32,49,150
228138202,39,36,29,159,24,70,138
228188202,316,37,45,84,22,53,100
228238202,191,38,61,59,38,62,84
228288202,106,38,50,55,29,49,81
228338202,61,36,37,56,24,36,115
228388202,46,36,31,50,24,34,101
228438202,41,36,29,48,199,34,83
228488202,39,40,29,47,126,33,135
228538202,38,50,42,52,81,32,181
228588202,212,125,85,67,59,32,147
228638202,286,202,123,89,142,48,110
228688202,179,223,182,83,206,78,93
228738202,101,177,185,82,86,53,169
228788202,80,83,80,86,54,38,140
228838202,52,52,45,62,33,34,136
228888202,43,42,34,57,28,32,99
228938202,40,38,30,94,43,32,85
228988202,38,37,29,155,52,35,85
229038202,44,36,28,179,35,33,108
229088202,44,36,28,161,25,101,161
229138202,40,36,28,120,22,76,122
229188202,74,36,47,70,22,49,90
229238202,88,37,51,54,22,57,76
229288202,70,37,65,50,21,45,69
229338202,49,36,40,50,21,36,107
229388202,42,36,32,49,21,34,118
229438202,39,36,30,47,21,31,99
229488202,38,43,45,46,74,31,185
229538202,44,49,38,49,38,32,174
229588202,274,88,81,66,106,35,134
229638202,278,187,141,89,184,61,159
229688202,222,235,225,82,170,59,197
229738202,152,126,169,60,75,44,257
229788202,98,69,73,77,41,35,197
229838202,63,47,42,59,72,38,138
229888202,82,41,33,58,256,44,132
229938202,53,38,30,124,201,39,122
229988202,43,37,29,298,100,38,183
230038202,41,37,28,419,50,37,232
230088202,39,36,28,233,30,58,219
230138202,40,36,29,113,24,48,148
230188202,153,40,67,72,23,56,104
230238202,128,39,67,65,26,50,96
230288202,73,37,42,68,28,37,106
230338202,51,37,33,58,24,35,97
230388202,42,36,30,51,47,31,80
230438202,39,41,32,48,140,33,154
230488202,39,43,50,55,98,35,179
230538202,202,109,97,61,55,32,136
230588202,294,191,201,77,95,48,113
230638202,207,243,227,88,144,54,97
230688202,134,207,211,72,112,50,201
230738202,71,102,94,65,52,37,132
230788202,49,58,49,71,33,34,100
230838202,74,44,35,62,39,32,82
230888202,72,39,30,77,60,34,71
230938202,49,37,29,235,43,33,76
230988202,73,37,28,227,29,48,134
231038202,50,36,29,153,24,81,156
231088202,42,36,29,81,22,65,127
231138202,119,36,50,58,21,64,93
231188202,89,38,59,314,24,58,79
231238202,63,37,51,154,23,43,72
231288202,48,36,36,84,23,39,96
231338202,41,36,31,61,21,33,86
231388202,39,36,30,51,94,32,80
231438202,40,42,50,54,70,33,239
231488202,43,90,86,58,172,41,159
231538202,154,143,145,108,97,57,123
231588202,138,191,148,114,118,62,96
231638202,119,287,219,106,111,56,127
231688202,96,131,115,88,52,41,112
231738202,62,67,55,69,32,34,85
231788202,46,46,37,58,24,33,84
231838202,79,40,31,86,37,31,74
231888202,52,37,30,121,83,31,77
231938202,42,37,28,413,50,32,162
231988202,88,36,28,293,32,82,222
232038202,61,36,29,173,25,70,252
232088202,90,37,45,88,23,50,166
232138202,122,44,93,67,28,73,117
232188202,99,39,66,68,36,56,106
232238202,60,37,45,71,33,40,125
232288202,45,36,34,54,24,37,102
232338202,41,36,30,49,22,32,124
232388202,39,43,40,49,51,31,234
232438202,42,99,70,52,119,32,158
232488202,214,163,143,83,94,49,113
232538202,196,223,192,83,169,54,97
232588202,186,291,184,230,199,46,119
232638202,111,179,182,123,82,40,124
232688202,62,85,77,114,43,33,93
232738202,47,53,47,79,28,32,73
232788202,66,62,53,114,24,31,64
232838202,46,45,39,117,34,30,68
232888202,41,38,32,291,29,33,125
232938202,59,38,29,232,24,104,143
232988202,45,36,29,122,22,80,151
233038202,81,38,41,71,21,49,106
233088202,90,38,69,58,22,73,90
233138202,152,44,90,74,30,60,81
233188202,77,39,59,65,30,40,132
233238202,53,37,38,55,27,38,108
233288202,44,37,33,50,58,32,87
233338202,40,56,39,54,114,32,206
233388202,40,76,63,55,80,42,164
233438202,123,206,230,74,79,54,124
233488202,130,252,203,90,115,58,107
233538202,149,286,257,85,85,65,130
233588202,154,209,170,126,43,42,123
233638202,110,93,73,95,29,35,90
233688202,92,56,42,71,23,35,77
233738202,132,44,33,84,22,31,70
233788202,71,38,30,210,119,32,75
233838202,49,37,29,435,65,37,169
233888202,45,36,28,330,41,79,231
233938202,41,37,30,184,28,70,232
233988202,82,39,36,97,23,51,147
234038202,139,45,97,97,26,54,115
234088202,140,40,57,84,34,58,90
234138202,100,37,38,69,31,41,115
234188202,59,36,32,57,57,36,94
234238202,45,37,29,61,183,42,129
234288202,42,62,53,124,122,41,233
234338202,89,98,77,89,237,53,160
234388202,188,286,314,108,199,90,125
234438202,233,391,390,107,187,67,98
234488202,216,289,249,91,101,48,154
234538202,136,168,133,88,49,40,109
234588202,71,79,61,69,30,35,86
234638202,50,51,39,67,24,32,75
234688202,43,41,31,93,24,30,70
234738202,40,37,32,300,91,33,83
234788202,45,37,31,454,54,62,135
234838202,47,36,29,322,32,92,200
234888202,54,38,32,139,25,61,156
234938202,118,39,60,84,23,50,112
234988202,127,40,59,65,29,80,100
235038202,83,38,40,75,24,53,110
235088202,53,36,33,58,21,42,111
235138202,43,36,30,51,21,34,106
235188202,40,56,40,48,28,34,164
235238202,40,66,55,53,39,31,162
235288202,422,143,129,76,127,47,123
235338202,362,190,223,102,277,46,91
235388202,279,308,187,115,133,48,109
235438202,320,218,202,91,77,43,164
235488202,149,96,85,72,41,39,114
235538202,85,56,46,65,28,36,153
235588202,53,43,34,67,24,32,140
235638202,43,38,30,79,85,31,97
235688202,39,37,29,210,63,36,101
235738202,46,36,29,336,36,77,122
235788202,40,36,29,157,25,97,130
235838202,70,37,42,89,23,60,96
235888202,128,39,64,61,23,77,96
235938202,94,42,56,63,24,64,97
235988202,58,38,38,63,22,42,127
236038202,45,37,31,149,21,38,94
236088202,42,36,30,81,24,32,78
236138202,40,40,43,57,24,31,162
236188202,40,56,36,52,34,32,217
236238202,297,136,86,61,49,34,166
236288202,337,168,239,77,228,59,131
236338202,228,254,200,84,290,73,97
236388202,129,173,154,72,142,48,182
236438202,68,82,67,75,62,37,121
236488202,48,51,41,58,36,33,102
236538202,88,42,33,76,47,32,75
236588202,61,39,30,91,68,30,70
236638202,46,36,29,294,52,33,71
236688202,44,36,28,394,52,64,92
236738202,40,36,28,192,31,84,115
236788202,44,36,30,120,24,65,86
236838202,142,38,73,71,24,59,75
236888202,136,38,57,57,22,60,75
236938202,88,38,45,65,22,41,85
236988202,60,36,33,53,22,41,116
237038202,45,36,30,50,27,33,101
237088202,40,36,29,47,24,32,82
237138202,39,43,39,48,49,31,170
237188202,42,66,78,60,60,34,137
237238202,302,182,124,74,66,67,122
237288202,276,208,185,78,134,57,109
237338202,155,220,194,68,162,65,155
237388202,79,133,88,60,73,44,138
237438202,51,68,46,63,40,35,98
237488202,44,47,34,52,28,34,81
237538202,45,40,30,61,88,35,72
237588202,40,37,29,122,112,35,68
237638202,58,37,29,315,56,36,101
237688202,48,37,28,322,33,105,172
237738202,41,36,28,160,25,71,193
237788202,107,37,68,84,23,49,141
237838202,202,46,110,64,30,75,101
237888202,163,40,60,58,26,60,86
237938202,81,37,40,68,23,41,95
237988202,52,36,32,56,21,37,88
238038202,42,36,29,50,23,32,75
238088202,40,42,32,47,22,31,205
238138202,39,51,50,60,36,32,203
238188202,286,140,108,71,51,45,141
238238202,346,209,188,97,113,60,111
238288202,189,208,191,88,176,52,111
238338202,105,184,128,70,82,41,166
238388202,60,85,60,66,44,35,127
238438202,65,53,38,59,29,35,141
238488202,83,42,31,93,169,36,100
238538202,54,38,29,100,87,34,109
238588202,43,36,28,339,58,33,206
238638202,53,36,28,288,35,90,232
238688202,42,36,28,134,25,94,201
238738202,78,36,33,74,24,71,138
238788202,118,39,58,58,22,67,103
238838202,118,38,53,57,27,60,91
238888202,74,37,39,61,23,41,125
238938202,53,36,32,54,22,38,127
238988202,43,36,30,48,21,32,105
239038202,40,38,29,46,25,31,139
239088202,39,45,30,49,40,30,194
239138202,183,119,55,55,47,38,139
239188202,219,221,138,85,191,52,148
239238202,205,274,150,101,167,63,119
239288202,120,181,152,79,119,46,198
239338202,65,98,91,66,56,38,126
239388202,47,56,48,74,34,34,92
239438202,66,44,35,76,36,31,72
239488202,52,38,30,140,72,32,65
239538202,43,37,29,146,48,33,95
239588202,40,38,28,166,30,69,138
239638202,38,37,28,113,23,91,142
239688202,39,36,28,109,22,71,116
239738202,95,38,48,72,21,72,90
239788202,112,40,65,57,23,60,77
239838202,67,38,71,65,21,44,74
239888202,51,37,42,57,26,37,106
239938202,42,36,33,52,24,34,90
239988202,39,36,30,48,22,31,83
240038202,38,39,29,51,22,32,145
240088202,39,48,57,52,126,41,160
240138202,272,134,110,65,158,48,113
240188202,285,217,227,73,221,83,122
240238202,220,187,192,232,172,66,117
240288202,154,166,188,133,93,52,163
240338202,76,80,79,88,47,38,142
240388202,52,52,44,65,31,35,113
240438202,58,47,35,87,24,32,99
240488202,52,46,52,87,22,32,90
240538202,45,40,62,189,36,35,81
240588202,47,38,66,97,29,41,86
240638202,160,42,125,79,26,40,75
240688202,118,41,95,61,26,36,70
240738202,110,41,59,126,26,34,125
240788202,99,38,41,218,24,38,126
240838202,76,37,34,156,25,35,100
240888202,50,36,30,130,26,33,104
240938202,43,42,64,97,23,32,99
240988202,42,64,81,181,73,30,158
241038202,71,113,112,340,239,55,157
241088202,76,124,115,255,307,88,151
241138202,82,129,109,328,202,105,182
241188202,482,350,231,592,419,152,197
241238202,297,259,170,467,294,201,258
241288202,165,163,185,234,139,106,357
241338202,80,129,78,164,130,65,239
241388202,57,93,46,141,73,45,155
241438202,105,62,34,89,38,35,108
241488202,252,55,81,102,28,36,80
241538202,171,57,77,88,25,34,72
241588202,109,45,57,130,49,34,85
241638202,111,43,39,141,36,33,100
241688202,153,39,32,140,28,33,87
241738202,156,42,30,117,25,31,124
241788202,82,62,69,193,54,32,138
241838202,62,85,94,99,137,41,210
241888202,75,164,92,79,189,47,231
241938202,90,272,167,73,189,55,173
241988202,66,133,100,84,165,52,158
242038202,50,86,67,62,128,53,120
242088202,51,98,59,93,106,40,128
242138202,46,60,48,216,69,43,140
242188202,41,46,37,214,165,45,170
242238202,75,88,76,128,88,40,132
242288202,50,53,44,91,47,37,123
242338202,70,42,35,147,80,37,149
242388202,91,38,30,84,42,33,105
242438202,70,38,30,112,28,35,123
242488202,52,37,29,83,25,35,98
242538202,48,36,29,116,22,32,120
242588202,41,36,29,100,21,34,99
242638202,115,36,28,106,21,32,84
242688202,74,35,28,163,21,31,80
242738202,50,36,28,161,21,34,91
242788202,43,36,29,184,24,33,88
242838202,40,37,28,145,23,37,221
242888202,40,36,29,108,24,34,614
242938202,42,37,30,67,25,33,409
242988202,71,37,30,59,28,33,321
243038202,63,37,30,54,26,36,262
243088202,74,37,47,50,40,36,161
243138202,89,38,58,47,44,34,108
243188202,106,39,71,46,34,33,82
243238202,93,39,76,47,35,33,79
243288202,56,37,43,46,25,34,77
243338202,46,37,33,51,24,34,87
243388202,89,38,32,63,22,33,140
243438202,143,39,41,55,24,43,226
243488202,84,64,92,70,69,63,219
243538202,85,175,142,60,222,107,243
243588202,79,104,135,75,376,101,332
243638202,73,146,146,109,262,103,400
243688202,54,94,100,109,131,79,477
243738202,43,58,58,84,276,185,459
243788202,40,48,38,92,179,121,407
243838202,39,54,34,193,282,93,317
243888202,38,53,32,191,140,61,285
243938202,42,56,32,434,73,47,334
243988202,41,44,33,469,38,37,394
244038202,40,39,32,230,29,54,405
244088202,101,40,51,116,26,50,298
244138202,142,44,102,78,27,38,176
244188202,85,43,74,65,38,36,122
244238202,71,40,59,56,32,34,104
244288202,49,37,38,51,25,33,84
244338202,41,36,32,50,44,33,119
244388202,40,50,59,59,109,34,168
244438202,97,130,85,64,59,34,193
244488202,186,190,110,95,168,65,245
244538202,168,235,189,99,181,68,178
244588202,198,260,226,76,109,63,210
244638202,109,141,96,91,68,41,212
244688202,65,70,50,78,49,34,152
244738202,47,48,35,69,30,33,103
244788202,41,40,30,109,30,32,110
244838202,40,38,29,155,31,32,164
244888202,38,37,28,156,25,92,187
244938202,38,36,28,121,22,102,208
244988202,50,37,39,71,21,93,141
245038202,101,44,107,55,26,92,101
245088202,62,42,87,54,26,57,80
245138202,47,38,48,77,30,40,85
245188202,41,37,35,94,27,39,90
245238202,39,36,30,71,30,33,76
245288202,38,36,31,58,31,33,98
245338202,38,39,53,56,51,32,158
245388202,64,86,83,57,59,32,187
245438202,103,130,82,66,163,99,228
245488202,85,158,90,137,189,92,185
245538202,119,125,189,194,101,83,325
245588202,86,136,151,229,199,148,592
245638202,63,112,76,171,92,98,489
245688202,54,91,57,145,46,149,592
245738202,57,105,56,84,108,132,528
245788202,54,82,124,186,203,136,344
245838202,60,108,87,125,237,74,270
245888202,56,60,47,169,109,54,252
245938202,48,45,132,120,50,47,275
245988202,127,44,132,70,32,41,206
246038202,123,49,121,60,29,40,132
246088202,104,50,102,59,25,37,101
246138202,60,41,52,65,22,34,109
246188202,45,37,36,54,22,33,88
246238202,41,37,30,49,49,30,76
246288202,39,37,29,50,34,31,99
246338202,38,54,52,69,26,30,161
246388202,81,110,80,62,24,54,194
246438202,76,144,106,78,94,79,200
246488202,101,194,171,76,186,64,173
246538202,79,203,193,57,123,45,156
246588202,53,109,101,69,128,42,121
246638202,44,60,51,61,86,34,93
246688202,40,44,35,64,82,33,80
246738202,38,39,30,174,139,34,104
246788202,38,37,29,353,81,35,247
246838202,38,50,28,672,43,72,362
246888202,38,44,28,385,29,82,458
246938202,38,39,29,154,24,62,427
246988202,129,38,53,85,24,65,269
247038202,79,37,49,67,26,55,160
247088202,52,37,37,72,22,42,107
247138202,42,36,32,64,21,36,83
247188202,40,36,29,53,21,32,73
247238202,39,37,31,48,21,32,133
247288202,38,49,64,57,60,32,219
247338202,83,101,83,64,51,41,188
247388202,101,156,170,88,101,61,183
247438202,118,165,224,104,159,63,165
247488202,107,198,206,86,85,44,241
247538202,63,91,85,69,45,35,152
247588202,46,54,46,68,29,35,128
247638202,41,43,34,104,38,32,94
247688202,39,38,31,192,72,38,102
247738202,38,37,29,424,56,37,157
247788202,38,37,28,389,34,90,238
247838202,38,36,29,161,25,79,271
247888202,117,41,74,86,26,58,198
247938202,145,46,107,68,28,73,127
247988202,74,39,62,66,28,53,97
248038202,51,37,40,65,30,39,79
248088202,70,36,32,54,24,36,81
248138202,82,36,29,49,23,32,100
248188202,77,47,40,50,22,30,193
248238202,51,60,59,57,39,33,190
248288202,227,192,145,83,96,42,214
248338202,189,215,188,73,212,61,167
248388202,142,228,185,75,167,62,220
248438202,88,149,120,71,73,44,150
248488202,54,73,57,65,39,35,108
248538202,43,49,37,63,27,33,83
248588202,40,40,31,105,86,31,74
248638202,39,38,29,204,54,33,135
248688202,38,35,28,213,34,54,202
248738202,38,36,27,112,25,112,240
248788202,38,37,29,67,22,93,199
248838202,127,44,80,55,26,86,127
248888202,92,42,74,56,34,66,111
248938202,57,38,54,69,32,48,95
248988202,45,37,37,55,33,38,78
249038202,40,36,31,51,25,34,72
249088202,39,36,41,49,88,32,113
249138202,38,56,38,54,65,34,190
249188202,49,81,63,56,50,32,150
249238202,168,149,131,74,122,36,160
249288202,160,260,201,87,177,59,117
249338202,141,166,164,88,117,50,190
249388202,85,127,110,69,55,38,171
249438202,56,66,54,73,33,35,137
249488202,44,46,37,60,26,34,104
249538202,40,39,31,93,64,32,95
249588202,39,37,29,119,67,32,101
249638202,38,37,28,398,45,39,103
249688202,38,36,28,404,29,113,106
249738202,38,36,29,172,24,77,124
249788202,105,39,58,88,23,49,121
249838202,89,153,53,61,24,77,99
249888202,55,74,41,62,23,52,81
249938202,44,48,33,67,22,41,73
249988202,40,40,30,56,21,35,69
250038202,38,37,29,49,21,32,64
250088202,38,40,48,49,30,31,112
250138202,38,43,46,54,29,31,136
250188202,238,121,107,60,24,36,116
250238202,242,143,146,77,107,47,113
250288202,204,261,174,95,84,42,186
250338202,695,430,256,730,50,302,269
250388202,444,418,105,767,38,140,239
250438202,681,653,55,844,27,197,240
250488202,273,268,38,341,30,110,234
250538202,340,380,32,635,305,61,295
250588202,293,195,30,630,116,86,446
250638202,274,181,28,894,53,74,603
250688202,115,84,28,383,30,82,662
250738202,80,52,33,166,24,77,512
250788202,97,44,53,86,22,100,292
250838202,62,39,45,65,24,73,196
250888202,46,37,35,60,22,49,161
250938202,41,36,31,60,21,39,133
250988202,42,37,29,51,21,38,145
251038202,42,37,28,48,22,34,160
251088202,40,46,52,47,21,36,257
251138202,38,66,77,53,21,35,200
251188202,179,145,103,76,140,58,212
251238202,169,147,141,76,196,57,171
251288202,140,225,261,83,211,59,243
251338202,81,126,132,67,141,46,198
251388202,52,66,62,71,133,40,261
251438202,43,46,38,67,143,35,192
251488202,40,40,31,94,98,34,138
251538202,38,37,30,262,77,32,171
251588202,38,36,28,279,48,37,194
251638202,38,36,28,205,29,76,202
251688202,38,36,28,117,23,66,162
251738202,124,38,71,73,24,46,113
251788202,105,43,76,61,24,47,98
251838202,62,38,53,61,35,48,108
251888202,57,36,37,59,29,37,89
251938202,44,36,31,52,27,35,78
251988202,40,36,29,50,140,32,72
252038202,38,47,29,49,109,31,231
252088202,49,45,51,53,65,31,184
252138202,111,126,97,78,70,36,185
252188202,110,162,129,81,211,56,178
252238202,108,246,355,78,251,87,158
252288202,67,153,143,62,110,54,158
252338202,48,74,65,75,55,38,109
252388202,41,49,39,56,33,35,86
252438202,39,40,32,69,94,31,79
252488202,38,38,29,100,61,30,107
252538202,38,36,28,408,103,34,170
252588202,38,37,29,343,53,89,219
252638202,38,36,28,163,31,80,237
252688202,56,36,57,84,24,63,177
252738202,69,36,58,61,31,64,125
252788202,49,38,73,53,25,49,119
252838202,42,37,43,58,25,38,95
252888202,39,36,33,51,30,35,80
252938202,38,36,30,50,91,32,73
252988202,38,38,40,49,70,31,131
253038202,38,49,60,54,64,36,185
253088202,56,97,70,61,54,32,165
253138202,87,129,149,71,129,49,181
253188202,89,224,192,81,219,72,122
253238202,105,136,141,72,114,48,169
253288202,74,79,76,87,66,37,122
253338202,63,50,43,67,38,34,98
253388202,46,41,33,59,36,31,98
253438202,40,38,30,86,52,34,173
253488202,39,37,29,174,42,32,347
253538202,38,35,28,357,30,42,414
253588202,38,36,28,262,24,80,407
253638202,38,36,28,117,22,62,329
253688202,52,36,36,70,23,48,207
253738202,89,39,64,56,26,54,158
253788202,57,37,44,53,23,43,159
253838202,53,36,34,52,24,36,123
253888202,44,36,30,52,23,35,93
253938202,40,37,29,48,52,31,80
253988202,39,48,29,51,64,31,172
254038202,39,63,43,63,84,33,195
254088202,104,106,94,77,82,48,180
254138202,98,186,168,84,180,62,177
254188202,90,216,237,83,177,58,131
254238202,75,179,191,75,95,44,140
254288202,156,83,80,78,46,35,102
254338202,113,51,44,60,30,32,83
254388202,62,41,33,56,24,30,74
254438202,46,38,30,72,23,30,76
