time,EMG1,EMG2,EMG3,EMG4,EMG5,EMG6,EMG7
210634064,38,36,29,57,21,29,69
210638529,38,36,29,56,21,29,71
210643191,38,36,29,56,21,29,73
210647857,38,36,29,56,21,29,73
210652525,38,36,29,57,21,29,73
210657193,38,37,29,56,21,29,72
210661861,38,36,29,55,21,29,71
210666528,38,36,29,54,20,29,71
210671200,38,36,29,54,21,29,71
210675868,38,36,29,57,21,29,70
210680536,38,36,29,60,20,29,70
210685204,38,36,28,61,21,29,69
210689872,38,36,29,59,21,30,69
210694540,38,36,29,59,20,29,69
210699208,38,36,29,64,21,29,68
210703821,38,36,29,68,21,29,68
210708570,38,36,29,69,21,29,68
210713318,38,36,29,67,21,29,68
210718066,38,36,28,70,21,29,67
210722814,38,36,29,71,21,29,67
210727562,38,36,29,69,21,29,67
210732310,38,37,29,67,21,29,67
210737059,38,36,29,65,21,29,67
210741806,38,36,29,63,21,29,66
210746554,38,36,29,61,21,29,66
210751303,38,36,29,60,21,29,66
210756051,38,36,29,60,19,29,66
210760799,38,36,28,59,21,29,66
210765547,38,36,29,58,21,29,66
210770295,38,36,28,62,21,29,66
210775043,38,36,28,66,21,29,66
210779766,38,36,29,65,21,28,66
210784513,37,36,29,64,21,29,66
210789304,38,36,29,64,20,29,65
210794076,38,36,28,62,20,29,65
210798849,38,36,28,60,21,29,65
210803602,38,36,29,60,20,29,65
210808367,38,36,29,59,21,29,65
210813127,38,36,28,58,21,29,65
210817879,37,36,28,61,21,29,65
210822626,38,36,29,61,21,28,65
210827373,38,36,29,61,22,29,65
210832146,38,36,29,61,21,29,65
210836893,38,36,29,62,21,29,65
210841643,38,37,29,61,21,29,65
210846400,38,36,28,62,21,29,65
210851179,38,36,29,61,21,30,65
210855872,38,36,29,59,21,29,63
210860638,38,36,29,58,21,29,62
210865385,38,36,28,57,21,29,61
210870132,38,36,29,56,20,29,60
210874879,38,36,29,54,20,29,57
210879626,38,36,29,54,21,29,56
210884372,38,36,29,54,21,30,56
210889134,38,36,29,54,21,30,57
210893881,38,37,29,54,21,30,58
210898628,38,36,29,56,21,29,58
210903375,38,36,29,57,20,30,58
210908124,38,36,29,57,21,29,59
210912871,38,36,28,56,21,29,61
210917618,38,36,28,56,20,29,65
210922366,38,36,29,54,21,29,65
210927115,38,36,29,54,20,29,63
210931826,38,36,29,53,21,29,62
210936573,38,36,29,52,21,29,60
210941322,38,36,29,53,21,30,59
210946070,38,36,29,54,21,30,58
210950817,38,36,29,53,21,30,56
210955564,38,36,29,53,20,30,56
210960313,38,36,29,54,21,31,59
210965062,38,36,29,59,21,32,60
210969808,38,36,29,66,20,31,64
210974557,38,36,28,65,21,31,65
210979306,38,36,29,67,20,31,65
210984054,38,36,29,69,21,31,63
210988802,38,36,29,69,21,31,62
210993551,38,36,29,68,21,31,61
210998300,38,36,29,65,21,30,62
211003048,38,36,29,64,21,31,62
211007742,39,36,28,62,21,30,62
211012491,38,36,28,60,21,30,63
211017240,38,36,28,59,21,30,62
211021989,38,36,29,58,22,30,63
211026737,38,36,29,57,23,30,63
211031486,38,36,28,56,22,30,65
211036235,38,36,29,55,23,30,69
211040984,38,36,29,56,22,31,74
211045732,38,36,29,55,22,31,74
211050481,38,36,28,61,22,30,73
211055230,38,36,29,60,21,30,71
211059979,38,36,28,62,22,30,70
211064727,38,36,28,65,22,30,67
211069476,38,36,28,65,21,30,66
211074225,38,36,28,66,21,30,66
211078973,37,36,29,68,21,29,66
211083685,38,36,29,70,21,30,66
211088433,38,36,28,68,21,30,66
211093181,38,36,29,65,21,31,66
211097929,38,36,29,64,22,30,66
211102677,39,36,29,65,24,30,67
211107425,38,36,28,63,27,31,68
211112173,38,36,28,61,26,31,68
211116921,38,36,29,62,26,30,67
211121669,38,36,29,61,25,30,65
211126417,39,36,29,64,25,30,63
211131165,38,36,28,66,25,30,62
211135918,38,36,29,69,24,30,63
211140666,38,36,28,67,24,30,63
211145413,37,36,29,65,24,30,63
211150161,38,36,28,64,23,31,63
211154908,38,36,29,61,23,29,63
211159520,38,37,29,60,23,30,64
211164185,38,36,29,58,23,30,64
211168849,38,36,29,57,22,30,64
211173514,38,36,29,56,22,30,64
211178179,38,36,28,56,22,30,64
211182843,38,36,29,59,22,30,64
211187508,38,36,29,59,22,32,64
211192173,38,36,29,58,22,31,64
211196838,38,36,29,59,22,31,64
211201503,38,36,29,60,21,31,64
211206167,38,36,29,60,21,31,64
211210833,38,37,28,65,21,30,64
211215498,38,36,28,66,21,30,64
211220162,38,36,28,68,21,30,64
211224827,38,36,29,66,21,30,64
211229494,38,35,29,64,21,30,65
211234420,38,36,28,69,21,31,64
211239183,37,36,28,75,21,30,64
211243958,38,36,29,72,21,30,65
211254452,38,36,29,66,21,30,64
211259128,38,36,29,64,21,30,65
211263844,38,36,29,62,21,31,65
211268560,38,36,29,60,21,30,63
211273277,38,36,29,59,21,30,63
211277995,38,36,29,60,21,31,63
211282712,38,36,28,60,21,31,63
211287430,38,36,29,61,21,32,64
211292154,38,36,29,63,21,31,64
211296916,38,36,29,63,21,31,64
211301678,38,36,28,66,22,31,64
211306439,38,36,29,64,21,31,64
211311201,38,36,29,62,21,31,64
211315906,39,36,29,61,21,31,64
211320747,38,36,29,59,21,31,64
211325589,38,36,29,58,21,30,64
211330431,38,36,28,58,21,30,63
211335273,38,36,29,58,21,30,64
211340115,38,36,28,58,21,30,65
211344958,38,36,28,62,21,30,64
211349800,38,36,28,65,21,30,64
211354643,38,36,28,66,21,30,64
211359485,38,35,28,66,21,30,64
211364327,38,36,29,64,21,30,64
211369169,38,36,29,62,21,30,64
211374012,38,36,29,60,21,30,64
211378854,38,36,29,58,21,30,64
211383699,38,36,29,58,21,30,64
211388541,38,36,28,56,21,30,65
211393344,38,36,29,55,21,30,65
211398185,38,36,29,54,21,29,65
211403026,38,36,29,54,21,30,65
211407867,38,36,29,53,21,29,65
211412709,38,36,29,53,21,29,65
211417551,38,36,29,52,21,29,65
211422394,38,36,29,52,21,29,65
211427237,38,36,29,51,21,29,65
211432079,38,36,28,50,21,29,65
211436922,38,36,28,50,21,29,65
211441764,38,36,29,49,21,29,65
211446608,38,36,29,49,21,29,65
211451450,38,36,28,48,21,29,65
211456292,38,36,28,48,21,29,65
211461136,39,36,29,48,21,29,65
211465980,38,36,29,48,21,30,65
211470765,38,36,29,47,20,29,65
211475607,37,36,28,47,21,29,65
211480451,38,36,28,47,20,29,65
211485296,38,37,28,47,21,29,65
211490137,38,38,29,47,21,29,65
211494981,41,42,29,47,21,30,65
211499825,41,41,28,47,21,30,65
211504669,41,41,29,46,21,30,66
211509511,41,40,28,46,21,29,66
211514356,41,40,28,46,20,30,66
211519200,40,40,29,46,20,30,66
211524044,40,40,28,46,20,30,66
211528887,40,39,29,46,21,29,65
211533732,40,42,29,46,21,30,66
211538576,40,46,28,46,21,30,66
211543420,43,59,29,47,21,30,66
211548226,48,63,29,47,21,30,67
211553069,51,62,28,46,21,30,66
211557919,50,65,29,47,20,30,66
211562763,51,64,29,47,21,30,66
211567607,50,70,29,47,21,29,66
211572452,50,77,29,47,21,29,66
211577305,50,79,28,47,21,29,66
211582150,49,75,29,47,21,29,66
211586994,48,71,29,48,21,30,67
211591838,47,67,29,48,21,29,66
211596683,46,66,29,48,21,29,66
211601527,45,63,29,48,21,29,66
211606372,45,60,29,48,21,30,65
211611263,44,58,29,48,21,29,65
211616108,44,56,29,48,21,29,64
211620952,42,55,28,48,21,30,63
211625739,42,54,28,48,21,30,62
211630584,42,53,28,48,20,28,62
211635428,42,51,29,48,21,30,63
211640284,41,51,28,48,21,29,63
211645128,41,50,28,48,21,30,65
211649973,41,50,29,49,21,30,64
211654832,40,49,29,47,22,30,64
211659677,41,49,29,47,25,30,64
211664521,40,49,29,47,26,30,64
211669366,40,48,29,47,28,30,64
211674210,40,47,29,47,28,30,65
211679055,40,48,29,47,26,30,65
211683900,45,55,29,47,26,30,65
211688744,49,55,28,46,26,30,65
211693600,48,53,28,47,25,30,65
211698445,47,51,29,46,27,29,65
211703250,46,58,29,46,37,30,65
211708094,52,61,29,46,59,30,65
211712937,54,65,29,46,59,30,65
211717781,53,65,28,46,63,32,66
211722624,56,65,28,46,66,32,65
211727468,70,65,29,46,91,31,65
211732348,84,67,29,46,86,32,66
211737191,85,65,29,46,92,31,66
211742045,80,61,28,49,105,31,66
211746889,76,59,29,50,98,31,66
211751732,72,57,29,54,91,31,66
211756592,69,54,29,55,89,30,67
211761435,65,53,28,54,82,30,66
211766279,62,51,28,53,92,30,66
211771123,60,50,28,53,134,32,66
211775969,59,54,29,52,147,35,66
211780650,56,54,29,51,165,35,66
211785411,55,54,29,50,174,36,66
211790174,53,53,28,49,174,35,66
211794937,52,52,29,49,178,35,66
211799698,50,50,29,54,165,34,66
211804459,49,50,29,58,151,34,66
211809223,48,48,29,60,140,33,66
211813986,47,48,29,63,130,33,66
211818748,49,48,29,61,122,33,66
211823510,50,49,29,60,113,33,66
211828274,48,48,28,58,104,32,66
211833037,49,47,29,57,97,32,66
211837798,50,48,29,56,105,33,66
211842562,52,68,29,55,168,35,66
211847325,64,101,28,57,221,38,67
211852088,68,97,29,64,275,40,66
211857070,66,92,29,71,274,42,66
211861980,63,87,28,76,250,41,66
211866891,60,82,29,77,228,40,65
211871802,58,77,28,78,214,39,66
211876714,55,73,29,74,195,38,65
211881628,54,69,29,72,180,37,65
211886542,52,67,28,70,205,38,65
211891456,51,63,28,68,200,38,65
211896369,52,62,28,71,206,39,66
211901284,57,66,29,73,208,39,65
211906198,70,73,29,78,230,42,65
211911113,74,77,29,82,247,43,65
211916027,70,94,29,98,259,52,65
211920941,81,123,29,116,236,51,65
211925856,92,125,28,117,216,49,65
211930716,94,121,28,111,197,47,65
211935711,111,112,29,105,179,45,65
211940707,149,105,29,130,165,44,65
211945703,141,106,29,163,168,43,65
211950699,135,101,29,154,178,45,65
211955694,128,95,29,142,180,45,65
211960690,122,95,29,133,186,52,64
211965685,133,108,29,124,225,56,63
211970681,136,106,29,115,252,65,64
211975676,147,172,28,108,240,62,65
211980672,161,231,29,102,225,59,68
211985667,198,237,29,114,210,57,67
211990663,202,218,29,149,201,54,68
211995658,207,202,29,154,187,52,68
212000653,195,185,29,144,173,50,67
212005649,180,178,29,136,172,48,67
212010662,172,194,28,129,176,47,69
212015691,178,198,29,131,167,47,74
212020687,183,246,29,131,198,59,75
212025686,184,236,29,123,265,73,74
212030693,172,222,29,114,337,90,73
212035708,160,210,29,106,319,99,73
212040722,148,194,29,101,302,96,74
212045718,151,189,28,97,274,91,77
212050713,185,182,28,106,254,85,76
212055742,199,175,29,109,233,79,76
212060775,220,165,29,110,226,74,75
212065773,209,237,29,128,221,73,78
212070779,215,279,28,128,215,72,81
212075642,210,279,29,120,208,67,82
212080670,206,321,29,122,197,64,81
212085665,201,318,29,124,189,61,79
212090667,186,302,29,117,184,60,80
212095662,198,283,29,110,202,60,81
212100657,201,290,29,104,194,60,79
212105652,206,284,28,98,179,57,77
212110647,193,274,29,94,173,55,78
212115652,214,284,28,90,163,52,81
212120658,227,282,29,90,176,54,80
212125669,227,261,28,92,166,59,77
212130671,213,241,28,102,160,58,77
212135666,199,244,30,132,185,55,81
212140661,235,266,29,141,242,58,87
212145593,218,299,28,156,237,65,85
212150591,227,344,29,172,231,65,84
212155585,240,318,29,180,213,62,82
212160597,250,292,29,172,201,59,81
212165614,250,306,29,159,199,58,81
212170625,284,316,29,147,184,55,81
212175620,294,301,29,140,183,53,79
212180615,286,282,28,137,172,51,79
212185613,261,260,29,137,175,52,78
212190611,237,240,28,133,171,51,77
212195605,231,245,29,127,169,49,78
212200602,238,253,29,119,189,46,82
212205600,228,284,28,111,187,46,80
212210598,233,278,29,105,181,44,79
212215538,213,254,29,100,166,43,78
212220537,213,236,29,96,152,42,77
212225534,231,273,29,97,176,46,78
212230532,247,301,29,97,183,47,79
212235528,274,334,29,100,184,47,79
212240527,266,326,30,97,167,45,78
212245525,243,296,29,91,166,46,77
212250523,221,270,29,87,160,47,76
212255521,202,246,29,82,148,46,77
212260519,185,225,28,79,135,44,93
212265517,169,205,29,75,124,43,99
212270514,155,189,29,72,114,41,117
212275512,143,173,29,70,136,41,124
212280511,131,158,29,68,149,40,120
212285509,122,146,29,65,139,40,125
212290387,113,135,29,63,133,38,167
212295385,105,125,29,62,126,37,184
212300382,98,116,29,60,116,37,180
212305379,93,107,28,58,106,36,189
212310376,86,100,28,57,100,36,197
212315384,81,94,29,56,94,36,188
212320381,75,88,28,55,86,36,179
212325378,72,82,29,54,81,35,171
212330376,69,77,29,53,76,34,162
212335373,66,73,28,52,81,34,155
212340370,62,69,29,52,88,35,149
212345367,60,67,28,51,106,40,143
212350365,57,65,29,50,146,42,137
212355362,56,65,28,49,148,43,132
212360359,53,66,28,49,150,43,127
212365138,52,64,28,49,157,45,122
212370052,51,61,29,49,163,47,118
212374966,51,63,29,48,167,48,115
212379880,51,64,29,48,178,47,111
212384794,50,61,29,48,162,45,108
212389708,49,59,28,50,168,46,105
212394641,48,58,28,53,165,46,102
212399555,49,61,28,53,159,45,99
212404469,49,60,28,64,147,44,97
212409383,48,74,29,75,140,42,94
212414297,62,98,29,83,140,42,93
212419211,73,126,29,91,158,47,91
212424125,81,138,28,107,162,49,89
212429039,106,130,29,140,166,51,87
212433953,117,123,29,145,178,56,86
212439048,119,120,29,135,176,55,84
212444051,114,122,29,125,166,53,81
212449045,109,125,29,124,179,62,78
212454039,102,117,29,122,172,61,76
212459033,96,109,29,116,172,62,75
212464028,89,101,29,110,164,59,74
212469024,85,95,29,103,160,60,73
212474019,84,89,29,97,153,57,72
212479014,114,120,28,92,142,54,76
212484010,136,160,29,87,146,56,82
212489007,171,191,29,83,135,56,80
212494002,167,193,29,91,133,54,81
212498997,164,224,29,105,134,55,78
212503993,177,251,29,114,133,54,77
212514650,200,269,29,149,164,58,76
212519614,187,246,29,166,166,57,75
212524626,174,225,29,163,157,62,74
212529639,168,213,28,152,144,60,73
212534653,179,206,29,142,141,58,73
212539667,184,193,28,132,138,61,72
212544682,181,179,29,123,143,61,71
212549696,200,170,29,114,153,67,71
212554717,234,175,29,107,188,73,73
212559780,263,192,29,101,196,75,73
212564843,273,188,29,104,188,75,72
212569906,262,178,29,115,189,72,72
212574969,295,221,29,114,190,71,76
212580032,304,246,28,112,192,71,80
212585095,302,232,28,122,187,76,79
212589234,302,310,29,131,197,78,78
212594295,293,334,29,139,209,82,77
212599356,276,313,29,133,217,85,77
212604418,306,314,28,124,249,81,75
212609479,338,295,29,140,227,76,74
212614541,344,277,28,167,217,73,74
212619602,320,257,28,156,208,72,73
212624663,332,240,29,146,238,85,72
212629725,330,226,29,159,226,81,71
212634786,327,224,28,165,266,90,72
212639848,358,222,28,179,248,91,78
212644909,391,219,28,170,230,87,82
212649999,387,326,29,157,250,101,87
212655073,396,346,29,148,248,98,95
212659997,389,384,28,148,260,101,96
212665058,466,582,28,154,259,102,94
212670120,474,558,28,161,234,95,92
212675183,485,507,29,150,221,90,90
212680246,495,488,28,141,203,87,88
212685310,462,510,29,142,185,81,86
212690374,420,554,28,144,178,77,83
212695439,397,607,28,139,181,80,82
212700502,363,580,29,137,187,78,81
212705566,329,535,29,130,201,78,80
212710641,299,485,28,122,221,81,78
212715707,273,443,29,122,210,78,77
212720771,275,419,29,129,196,76,76
212725834,279,417,29,125,190,73,74
212730781,284,426,29,139,185,72,74
212735845,267,393,27,140,193,72,73
212740907,269,397,28,136,191,69,73
212745969,275,387,29,138,180,70,72
212751033,265,354,29,137,163,66,70
212756097,242,330,28,140,157,64,71
212761159,221,333,29,131,148,64,70
212766222,203,323,27,124,136,60,70
212771286,185,311,28,124,136,58,70
212776351,169,281,28,132,132,56,69
212781413,155,255,29,129,143,60,69
212786477,144,232,28,120,154,69,69
212791542,133,211,28,113,184,82,69
212796606,122,196,28,108,181,79,69
212801609,114,182,28,105,175,80,68
212806674,107,166,29,99,163,76,68
212811738,103,164,29,94,156,71,68
212816802,106,157,29,90,144,67,68
212821866,99,145,28,86,134,64,68
212826945,92,134,29,84,126,61,68
212832011,86,123,28,85,116,58,67
212837077,81,114,28,83,107,56,67
212842143,77,106,28,79,128,58,67
212847210,72,98,29,77,126,57,67
212852276,69,91,28,73,123,54,67
212857355,65,86,28,70,176,66,66
212862422,62,80,29,68,211,69,66
212867489,60,76,29,65,221,72,66
212872555,58,72,29,64,202,68,66
212877580,56,68,28,61,186,65,66
212882650,54,64,28,60,177,62,66
212887715,52,61,29,59,161,59,66
212892780,50,60,28,74,148,56,66
212897860,53,64,29,78,142,55,66
212902925,56,65,29,98,134,52,66
212907990,54,62,29,93,206,61,66
212913055,53,60,28,92,269,66,66
212918121,52,58,28,87,250,67,65
212923186,59,60,29,84,227,63,66
212928251,56,58,28,80,205,60,65
212933316,54,56,29,77,189,56,65
212938381,52,53,29,74,172,55,66
212943445,50,52,28,70,177,58,65
212948528,50,50,29,68,185,67,65
212953605,49,48,29,66,215,72,65
212958449,47,47,29,63,231,81,65
212963429,46,46,28,61,234,77,65
212968408,46,53,29,60,241,76,65
212973387,48,56,29,58,244,87,65
212978367,48,56,29,61,223,81,65
212983347,48,54,29,60,203,75,65
212988327,46,52,28,59,188,72,65
212993306,45,50,29,60,174,70,65
212998285,45,49,28,62,160,67,65
213003266,44,48,29,62,147,64,65
213008245,43,47,28,63,134,61,65
213013224,43,46,28,64,122,58,65
213018204,42,46,29,63,112,56,65
213023183,42,45,29,62,104,54,65
213028164,42,44,28,61,94,52,65
213033405,41,43,28,64,87,49,65
213038464,41,42,28,64,80,47,65
213043520,40,42,29,63,73,45,65
213048575,40,41,28,62,68,44,65
213053631,40,41,28,60,63,42,66
213058689,40,40,28,60,59,41,65
213063744,40,41,29,67,54,40,65
213068799,40,44,29,71,51,39,65
213073856,40,46,29,79,49,38,67
213078914,40,48,28,86,45,37,72
213083970,40,48,28,92,42,36,77
213089025,40,50,29,89,40,36,79
213094084,39,53,28,92,38,35,80
213099142,40,53,28,89,36,34,81
213104197,40,51,29,85,34,34,83
213109254,39,49,28,82,34,34,86
213114266,39,48,29,78,33,33,90
213119381,39,47,29,74,32,33,93
213124493,40,46,28,72,31,32,98
213129608,39,45,28,70,30,32,103
213134724,39,44,29,68,29,32,107
213139839,39,44,28,69,28,32,108
213144953,38,44,29,72,28,31,106
213150069,39,44,29,69,31,32,102
213155184,38,43,29,67,32,32,98
213160299,39,42,29,65,30,31,96
213165415,38,41,28,62,29,31,93
213170534,39,41,28,61,29,31,91
213175652,38,40,29,59,28,31,90
213180771,38,40,29,58,27,30,88
213185888,38,40,28,56,26,31,86
213191007,38,40,28,55,26,30,84
213196084,40,41,29,54,26,31,83
213201228,55,41,28,53,25,30,82
213206372,57,41,29,53,25,30,80
213211516,55,40,29,52,24,31,78
213216660,53,40,28,51,24,32,77
213221804,52,40,28,51,25,32,76
213226948,51,40,29,50,25,33,76
213232092,49,39,28,50,24,33,76
213237236,51,39,29,50,25,32,76
213242379,54,39,29,50,26,32,75
213247523,58,38,29,50,26,32,74
213252667,56,39,28,50,27,32,73
213257811,54,38,29,50,27,31,71
213262955,52,38,28,49,26,30,69
213268099,50,38,28,49,26,31,67
213273243,50,37,28,48,26,31,67
213278300,51,37,28,48,25,31,66
213283444,57,37,28,50,28,31,66
213288588,60,38,29,50,29,31,66
213293732,78,38,27,50,28,33,66
213298876,88,38,28,49,27,32,66
213304020,83,39,28,49,28,33,66
213309182,78,38,28,48,28,33,67
213314344,73,38,29,49,27,33,66
213319489,70,38,28,48,26,33,66
213324657,65,38,29,48,26,33,66
213329822,63,38,28,48,25,32,66
213334983,60,38,28,47,25,32,66
213340127,58,37,29,47,24,32,65
213345271,58,38,29,47,24,32,65
213350415,56,37,28,47,24,32,66
213355602,54,37,28,47,24,32,65
213360678,53,37,28,47,23,31,66
213365821,51,37,28,47,23,31,67
213370985,50,37,28,47,23,31,68
213376171,49,37,28,47,22,31,68
213381319,47,37,29,47,22,31,69
213386462,47,37,28,47,22,30,70
213391610,45,37,29,47,22,31,70
213396754,44,37,29,47,22,30,69
213401897,44,37,29,47,22,30,68
213407039,43,36,28,46,22,30,66
213412182,43,36,28,46,22,31,66
213417325,42,37,29,46,22,30,66
213422476,42,36,29,46,22,30,66
213427621,41,36,29,47,21,30,65
213432763,41,36,28,46,22,29,65
213437906,40,36,28,46,21,30,65
213442963,40,37,29,46,21,30,65
213448108,40,36,29,46,21,29,65
213453251,40,37,29,46,22,30,65
213458394,40,38,28,46,22,30,65
213463539,40,37,28,46,21,30,65
213468684,40,37,29,46,21,30,65
213473827,39,37,28,46,21,30,76
213478970,39,40,29,46,21,30,84
213484116,39,42,29,46,21,30,82
213489262,39,42,28,47,21,30,82
213494405,39,43,28,47,21,30,86
213499550,39,43,28,46,21,30,85
213504695,38,44,29,46,21,30,84
213509841,38,43,29,47,22,30,82
213514984,41,47,28,47,28,30,81
213520130,43,50,29,46,30,30,80
213525209,43,48,28,47,39,29,95
213530354,42,47,28,48,39,30,122
213535497,42,46,29,52,37,30,118
213540642,42,45,28,52,35,30,117
213545787,41,44,28,52,33,30,136
213550932,41,43,28,52,32,30,139
213556077,41,43,28,51,31,30,135
213561223,40,43,28,51,30,30,134
213566374,40,43,29,50,29,30,128
213571519,40,43,29,54,28,30,125
213576664,40,42,29,56,27,30,121
213581809,40,43,28,59,27,30,116
213586955,39,55,28,58,26,30,113
213592115,42,62,28,58,25,30,109
213597260,46,62,29,57,25,30,106
213602406,46,61,29,58,25,30,107
213607341,45,59,28,58,24,30,108
213612401,45,57,28,57,24,30,104
213617461,44,54,29,56,23,30,101
213622520,43,52,29,55,23,30,98
213627580,42,52,29,54,23,30,96
213632640,42,51,29,53,22,33,94
213637700,42,50,29,54,22,40,93
213642760,42,51,28,59,24,40,107
213647820,42,54,28,64,25,44,110
213652879,42,69,29,66,28,50,122
213657939,42,80,29,67,35,50,124
213662998,42,82,29,68,43,48,152
213668058,42,82,28,66,52,46,157
213673118,42,80,28,64,49,46,151
213678178,42,77,29,66,52,46,144
213682969,41,74,29,69,85,45,138
213687602,41,78,29,67,93,48,133
213692271,41,75,29,65,94,47,129
213696940,44,75,29,64,121,46,126
213701609,45,129,29,63,112,44,121
213706278,69,158,29,66,111,44,118
213710947,98,205,29,70,127,44,117
213715616,96,192,28,73,170,48,126
213720285,91,182,29,83,197,49,179
213724953,95,180,29,92,221,57,190
213729622,90,182,29,96,223,55,188
213734291,88,184,29,90,214,54,195
213738960,84,175,29,86,220,51,196
213743630,80,162,29,85,215,49,198
213748298,76,153,28,82,214,47,193
213752885,73,151,29,79,271,49,189
213757636,77,149,29,76,288,55,185
213762386,73,141,29,74,338,57,177
213767136,77,138,29,74,341,58,173
213771887,76,131,29,73,320,56,171
213776637,73,127,29,74,301,55,168
213781387,72,132,28,73,276,53,175
213786139,81,152,29,75,254,51,182
213790890,76,181,29,73,232,49,178
213795640,86,207,28,72,211,47,180
213800391,85,197,29,73,219,45,188
213805144,84,195,29,71,270,47,187
213815562,86,174,28,75,351,56,180
213820223,81,162,29,83,353,55,176
213824910,78,150,29,80,322,53,169
213829491,74,140,29,83,304,51,168
213834177,72,134,28,83,285,50,169
213838865,72,127,29,80,267,48,169
213843552,74,128,29,77,247,46,168
213848239,74,128,29,75,226,45,169
213852954,71,125,28,75,210,44,163
213857690,73,117,29,74,195,42,161
213862425,69,110,29,73,183,41,165
213867161,66,103,29,76,176,41,196
213871896,63,97,28,79,168,40,201
213876632,60,90,28,82,170,39,201
213881367,58,85,29,82,204,41,193
213886103,56,80,28,80,233,42,197
213890839,55,76,29,86,240,43,197
213895558,54,72,29,83,223,42,197
213900295,51,69,28,80,212,41,197
213905031,50,67,29,77,196,40,190
213909768,49,64,29,74,184,39,188
213914504,48,61,29,71,172,38,197
213919241,47,59,29,69,161,37,204
213923977,46,57,29,67,151,37,210
213928714,45,55,29,65,141,36,210
213933450,44,53,29,63,129,35,209
213938187,44,52,29,63,118,34,214
213942928,43,50,29,62,109,34,216
213947665,42,49,29,61,102,33,215
213952401,42,48,29,59,94,33,214
213957138,42,47,29,58,87,33,214
213961875,41,46,29,59,80,32,212
213966613,39,45,29,59,78,32,208
213971245,41,44,29,64,76,32,203
213975982,41,44,29,64,76,32,205
213980719,40,43,29,67,70,32,211
213985457,40,43,28,66,66,31,211
213990194,40,42,28,64,69,31,207
213994931,40,42,29,62,72,30,214
213999669,39,41,28,70,81,31,219
214004407,39,42,28,73,80,32,223
214009144,39,41,28,77,74,31,226
214013881,39,40,28,75,69,31,228
214018620,39,40,28,73,64,31,231
214023357,38,40,29,73,60,31,232
214028094,39,40,29,75,71,31,228
214032832,38,39,29,79,77,33,246
214037571,38,39,28,79,78,32,254
214042227,38,39,28,79,89,32,259
214046964,38,39,28,83,101,32,258
214051703,38,38,29,85,98,31,269
214056442,38,38,28,87,106,33,283
214061180,38,38,29,89,104,32,295
214065918,38,38,28,97,97,32,305
214070657,38,38,28,106,96,32,314
214075396,38,37,29,110,90,32,315
214080134,38,37,28,114,87,32,325
214084873,38,37,29,108,82,32,325
214089612,38,37,28,105,81,32,340
214094351,38,37,28,112,82,31,345
214099090,38,37,29,118,83,31,345
214103829,38,38,28,166,77,30,369
214108569,38,37,28,170,73,30,388
214113307,38,37,28,217,74,30,404
214118045,38,37,28,252,74,30,418
214122784,38,37,28,261,70,30,432
214127523,38,37,28,283,66,30,444
214132262,38,37,28,273,63,31,456
214137001,38,37,28,316,64,31,467
214141740,38,36,28,336,75,30,458
214146478,38,37,28,461,71,30,482
214151217,38,37,29,527,67,32,488
214155956,38,37,28,567,67,31,499
214160695,38,37,28,543,64,31,512
214165434,38,37,28,513,60,31,525
214170173,38,37,29,541,55,31,537
214174912,38,38,28,587,52,32,548
214179651,38,37,28,578,49,34,559
214184291,38,37,28,529,47,35,568
214188970,38,37,28,486,44,36,577
214193626,38,37,28,443,42,37,585
214198288,38,37,29,414,40,37,592
214202945,38,37,28,405,38,38,599
214207602,38,37,28,411,36,38,606
214212258,38,37,29,403,35,38,612
214216915,38,36,28,409,34,37,617
214221572,38,37,28,415,33,36,623
214226238,38,37,28,428,32,36,628
214230895,38,36,29,412,31,35,632
214235552,38,36,29,384,30,35,636
214240209,38,36,29,349,29,34,639
214244866,38,36,29,319,28,34,642
214249523,38,36,29,295,27,36,645
214254478,38,36,29,269,26,36,647
214259234,38,36,28,247,26,35,645
214264000,38,36,29,227,25,37,642
214268766,38,36,29,209,25,38,637
214273532,38,36,29,192,24,38,631
214278298,38,36,29,177,24,38,627
214283078,38,37,29,163,24,38,623
214287844,38,37,29,151,24,37,615
214292610,38,37,29,142,23,39,605
214297376,38,37,29,134,23,40,593
214302142,38,37,29,127,23,39,579
214306909,38,37,29,123,23,38,563
214311674,38,36,28,117,22,37,545
214316440,39,36,29,109,22,39,525
214321207,38,36,28,102,23,41,502
214325956,38,36,29,98,22,40,481
214330803,38,36,29,93,22,40,458
214335649,37,36,29,91,22,41,435
214340498,43,36,29,89,22,41,413
214345345,49,37,29,85,22,42,391
214350191,52,37,29,82,22,43,368
214355038,86,37,29,80,22,45,346
214359887,97,38,29,76,21,45,327
214364734,109,38,29,76,22,46,309
214369581,103,39,29,73,22,47,292
214374429,96,39,29,70,22,46,276
214379278,90,39,29,68,22,46,261
214384126,85,39,29,66,22,45,248
214388973,83,38,29,66,22,44,239
214393822,96,38,29,65,22,42,230
214398671,94,39,29,63,22,41,223
214403416,94,39,29,61,21,42,220
214408263,96,38,29,61,22,43,216
214413111,100,38,29,60,22,42,214
214417959,97,38,29,59,22,42,212
214422807,93,38,29,59,22,42,210
214427657,88,38,29,60,24,42,208
214432508,82,38,29,61,24,40,207
214437359,78,38,29,60,24,40,205
214442209,74,38,29,61,24,39,204
214447061,70,37,29,62,24,38,201
214451912,68,38,29,66,25,37,198
214456763,66,37,29,66,25,37,196
214461615,65,37,29,64,25,36,194
214466466,69,37,29,62,27,35,193
214471318,66,37,29,64,26,36,193
214476151,63,37,29,64,26,35,192
214481002,60,37,30,66,25,35,191
214485854,59,37,29,66,25,34,189
214490747,56,37,28,66,25,34,188
214495598,54,37,29,65,25,34,185
214500449,52,37,29,65,24,34,182
214505300,51,37,29,64,24,34,177
214510151,50,37,29,63,24,34,172
214515003,48,37,29,62,24,34,166
214519854,47,37,29,60,23,34,160
214524705,46,37,28,61,23,34,155
214529556,45,37,28,61,22,35,149
214534407,45,37,29,61,22,34,144
214539258,44,37,29,62,22,33,141
214544109,44,37,29,63,22,33,136
214548962,44,38,29,62,22,32,132
214553718,43,37,28,61,22,32,128
214558574,42,37,29,61,22,31,125
214563424,42,37,29,60,22,31,121
214568275,42,37,29,58,24,31,118
214573138,41,37,29,58,26,31,115
214578011,41,37,29,57,27,31,113
214582872,41,36,29,55,26,31,111
214587724,40,36,28,55,25,31,110
214592575,40,36,28,56,25,30,109
214597425,40,36,29,61,24,30,108
214602284,40,36,29,62,25,30,107
214607179,39,36,28,62,24,30,107
214612038,39,36,29,61,24,30,107
214616889,40,36,29,59,24,30,109
214621740,39,36,29,58,23,30,111
214626573,39,36,29,57,24,30,116
214631423,38,37,29,57,23,30,131
214636298,39,37,29,57,23,30,141
214641175,39,38,29,57,23,30,148
214646025,39,38,29,56,23,30,149
214650876,38,37,29,55,23,30,155
214655742,38,38,29,56,22,30,161
214660592,38,40,29,56,23,30,167
214665443,38,41,28,55,30,30,205
214670294,38,49,28,54,33,30,247
214675146,39,49,29,52,39,30,246
214679996,38,48,29,52,40,30,248
214684847,38,47,29,52,38,30,240
214689716,38,46,29,52,36,29,236
214694568,38,45,29,52,35,30,234
214699419,38,44,29,51,34,31,225
214704167,39,43,29,51,34,30,220
214709019,38,48,29,51,38,31,209
214713870,42,57,29,52,36,31,202
214718720,46,67,29,51,35,31,192
214723571,52,69,29,51,34,31,184
214728424,55,66,29,54,32,31,175
214733274,55,64,28,54,32,31,167
214738124,54,64,29,53,31,31,160
214742976,66,64,28,52,31,30,154
214747829,83,70,28,52,31,33,148
214752680,102,74,29,52,37,32,143
214757531,110,76,28,53,54,32,138
214762383,120,78,29,54,58,32,132
214767235,120,79,29,57,63,36,128
214772087,122,76,29,62,60,37,123
214776838,117,90,28,63,62,40,119
214781607,113,90,28,66,80,41,118
214786376,105,95,29,67,77,44,122
214791145,103,95,28,73,78,45,132
214795914,98,90,28,72,77,45,136
214800683,96,84,29,74,82,46,136
214805453,94,81,28,73,106,46,136
214810222,101,83,29,71,109,50,131
214814991,100,83,29,68,103,50,127
214819760,94,93,28,71,104,53,123
214824529,93,114,29,74,111,53,121
214829299,93,120,28,74,136,51,121
214834068,93,121,29,74,136,50,116
214838837,89,122,29,73,166,55,112
214843607,86,121,29,73,168,55,109
214848662,81,130,29,72,166,52,106
214853569,80,123,29,72,163,53,105
214858477,76,114,29,71,189,58,130
214863385,72,107,29,72,204,56,153
214868292,68,100,29,74,247,60,179
214873200,70,103,29,80,232,65,185
214878108,70,105,29,91,219,67,180
214883015,72,154,28,92,200,63,174
214887923,72,200,29,91,187,60,165
214892831,74,217,28,100,178,57,157
214897738,76,213,28,100,168,54,154
214902646,77,205,29,95,154,53,149
214907553,81,200,29,100,141,51,144
214912460,78,186,29,109,137,50,140
214917368,75,170,29,104,160,53,135
214922150,71,157,28,98,171,50,128
214927139,67,144,29,92,182,48,123
214932127,64,133,29,87,178,46,119
214937116,61,123,29,84,161,45,115
214942105,60,114,29,95,146,43,112
214947094,59,106,28,102,133,41,108
214952083,57,99,29,115,122,41,106
214957072,55,93,29,117,113,40,113
214962061,54,87,29,118,104,38,111
214967049,52,81,28,114,96,37,108
214972038,50,77,29,113,91,37,121
214977027,49,72,28,110,92,36,121
214982016,47,69,28,106,86,35,118
214987017,47,65,29,103,79,35,119
214991981,46,62,29,100,73,35,119
214996969,45,59,28,102,73,34,119
215001957,44,57,29,99,67,34,132
215006946,44,55,28,94,63,33,135
215011934,43,53,28,89,60,34,135
215016922,42,51,29,85,57,33,136
215021912,42,49,28,80,53,33,135
215026901,41,48,28,77,49,32,133
215031889,41,47,28,74,47,32,130
215036878,41,46,28,71,53,32,127
215041868,41,45,28,69,61,32,131
215052524,40,45,28,78,67,31,133
215057422,40,46,28,77,63,31,130
215062344,40,46,28,76,60,31,126
215067267,39,45,29,76,67,31,122
215072190,39,45,28,74,72,30,119
215077027,39,44,28,72,70,31,115
215081951,39,44,28,78,76,30,112
215086875,39,43,28,89,83,30,110
215091827,38,42,28,88,121,30,108
215096800,38,42,28,87,130,33,107
215101773,38,41,28,85,150,33,105
215106745,38,41,28,81,151,34,111
215111718,39,40,28,78,144,35,113
215116690,38,40,28,84,137,37,118
215121663,38,40,28,96,125,36,130
215126635,38,39,28,98,114,36,140
215131609,38,39,28,101,107,34,149
215136582,38,38,28,114,99,35,159
215141556,38,38,28,108,92,34,169
215146529,38,38,28,110,100,33,180
215151435,38,38,28,112,98,33,192
215156407,38,38,29,118,101,33,206
215161380,39,37,29,113,97,33,221
215166353,38,37,28,113,96,32,236
215171325,38,37,28,113,100,32,251
215176313,38,37,29,128,92,32,256
215181286,37,37,28,207,88,31,263
215186280,38,37,29,280,81,31,289
215191261,38,37,29,353,75,31,303
215196234,38,37,29,326,70,31,315
215201207,38,37,29,306,67,31,326
215206179,38,37,29,292,64,31,336
215211152,38,38,28,273,62,31,344
215216126,38,36,28,251,59,31,352
215221100,38,36,28,229,57,31,359
215225988,38,36,29,215,53,30,366
215230963,38,36,29,209,50,30,372
215235937,38,36,29,244,48,30,377
215240910,39,36,28,251,45,30,381
215245886,38,36,29,262,43,30,384
215250860,38,36,28,329,41,32,386
215255834,38,36,29,346,38,33,386
215260807,38,36,29,340,37,33,385
215265784,38,36,28,325,36,36,383
215270759,38,36,28,303,35,38,380
215275732,38,36,29,292,33,40,376
215280707,38,36,30,266,32,42,371
215285684,38,36,29,242,31,45,366
215290659,38,36,29,224,29,46,360
215295632,38,36,29,205,28,47,353
215300541,38,36,29,190,28,47,348
215305516,38,36,29,175,27,46,341
215310491,38,36,29,161,26,45,334
215315465,38,36,28,151,26,43,328
215320440,38,36,29,145,25,42,322
215325415,38,36,29,138,25,40,315
215330389,38,36,29,132,24,40,309
215335364,38,36,28,124,24,40,301
215340340,38,36,29,117,24,40,295
215345315,38,36,29,109,23,39,287
215350290,38,36,29,102,23,41,278
215355266,38,36,29,96,23,41,269
215360241,38,36,28,91,22,40,262
215365216,39,36,28,86,22,39,252
215370192,39,36,29,82,22,38,241
215375045,38,37,29,78,22,38,231
215379939,38,36,29,74,22,37,221
215384833,38,36,29,72,22,38,213
215389727,38,36,29,69,22,37,202
215394621,38,36,29,67,22,38,191
215399515,38,36,29,65,22,41,182
215404409,38,36,29,62,22,42,173
215409303,38,36,29,63,22,44,164
215414197,38,36,29,63,22,46,155
215419091,39,36,29,61,22,47,147
215423985,38,36,29,60,22,48,140
215428879,39,36,29,58,22,47,136
215433774,39,37,29,58,21,46,130
215438668,43,36,29,58,22,45,126
215443562,45,37,29,58,22,44,122
215448456,44,37,29,57,22,42,118
215456775,51,37,29,55,21,40,112
215461474,58,37,29,58,21,39,112
215466101,59,37,29,57,21,39,113
215470763,69,37,29,57,22,38,115
215475424,65,37,29,56,22,38,118
215480086,64,37,29,55,22,37,122
215484748,61,37,29,54,22,36,127
215489409,59,38,29,53,21,36,132
215494088,57,37,29,53,21,36,137
215498749,55,37,29,53,22,35,142
215503411,53,37,29,54,23,35,146
215508072,52,37,28,56,23,34,150
215512734,50,37,29,57,23,33,153
215517395,49,37,29,59,24,33,156
215522057,48,37,29,60,23,33,160
215526699,47,37,29,59,24,32,163
215531440,47,37,29,60,24,32,166
215536191,45,37,29,62,26,32,169
215540933,45,37,29,60,26,32,172
215545674,44,37,28,59,27,32,175
215550421,43,37,29,58,25,32,177
215555163,43,36,28,56,27,32,180
215559905,42,36,29,55,28,32,182
215564647,42,36,28,54,28,33,183
215569389,41,36,28,55,31,33,184
215574131,41,37,29,54,31,33,184
215578875,41,36,29,54,30,32,185
215583617,41,37,29,54,30,33,185
215588358,40,36,29,53,29,33,184
215593101,40,36,29,53,28,33,181
215597845,40,36,29,53,28,33,176
215602484,40,36,29,53,27,32,172
215607225,40,36,28,52,26,32,166
215611968,39,36,28,52,26,32,161
215616711,39,36,29,51,26,31,156
215621452,39,36,29,51,25,31,150
215626194,39,36,29,51,25,31,146
215630937,39,36,28,50,24,31,141
215635680,38,36,29,50,24,30,139
215640421,39,36,28,49,24,30,136
215645164,38,36,29,50,23,30,135
215649908,38,37,29,52,23,30,134
215654651,39,37,29,54,23,30,135
215659393,38,36,29,54,23,30,136
215664136,38,36,29,55,23,30,137
215668880,38,36,29,54,22,30,139
215673604,38,36,29,54,22,30,140
215678348,38,36,29,54,22,30,143
215683094,38,36,29,55,22,31,146
215687841,38,36,29,55,22,30,148
215692587,38,36,28,54,22,29,152
215697333,38,36,28,53,22,30,156
215702079,38,36,29,53,21,30,159
215706826,38,36,29,53,22,30,163
215711572,38,36,29,52,21,30,166
215716318,38,37,29,52,21,30,168
215721065,38,39,29,51,21,30,175
215725811,38,40,28,51,21,30,180
215730558,38,41,28,50,21,30,189
215735305,39,42,29,50,21,30,200
215740051,38,41,29,50,21,30,217
215744797,38,41,28,49,21,30,217
215749441,38,41,28,49,21,30,212
215754187,38,41,29,49,21,30,205
215758933,38,42,29,48,21,30,214
215763679,38,42,28,48,21,30,226
215768424,38,43,29,48,21,30,225
215773170,38,44,29,48,21,30,250
215777916,38,44,28,49,21,30,256
215782662,38,43,28,49,21,30,254
215787408,38,43,29,49,21,30,253
215792154,38,43,29,49,21,30,253
215796899,38,44,29,48,21,31,247
215801645,39,50,29,49,21,32,237
215806391,40,57,29,48,20,32,227
215811150,40,66,28,50,22,34,218
215815896,40,68,29,51,21,40,208
215820631,40,65,28,51,21,42,198
215825389,43,62,28,52,22,42,189
215830137,44,66,28,53,22,41,181
215834901,49,69,28,53,22,40,172
215839647,58,70,29,52,23,40,165
215844393,61,91,29,56,25,42,158
215849148,59,108,28,56,36,45,154
215853895,68,122,28,55,49,45,147
215858651,68,127,29,56,53,43,142
215863407,66,122,29,57,55,42,136
215868153,63,121,29,57,66,44,133
215872913,65,114,28,59,89,43,128
215877666,66,111,29,60,104,48,124
215882421,64,108,28,65,112,51,128
215887193,61,102,29,66,121,49,139
215891939,59,108,29,66,124,53,147
215895780,63,111,29,64,148,62,144
215900525,68,109,29,62,161,63,139
215905271,72,117,29,60,193,69,134
215910016,69,118,29,62,215,81,128
215914761,66,116,29,66,201,79,124
215919516,68,124,29,66,183,74,120
215924261,69,116,28,64,178,71,116
215929006,66,119,28,66,209,68,113
215933751,67,121,29,64,261,66,110
215938505,68,116,28,62,284,66,107
215943250,66,109,29,61,314,77,104
215947995,64,103,29,60,312,77,105
215952741,64,101,28,63,290,72,102
215957489,62,129,29,62,264,68,99
215962070,64,140,28,62,243,65,108
215966733,62,154,29,66,228,62,114
215971398,71,173,29,69,208,58,112
215976062,68,171,29,67,194,56,108
215980725,65,165,29,66,185,53,105
215985389,64,160,29,65,176,51,102
215990054,64,150,29,64,163,49,104
215994719,69,147,29,64,149,47,105
215999381,71,154,28,64,136,46,108
216004046,69,147,28,61,125,44,111
216008711,70,139,29,60,115,43,114
216013375,68,130,29,59,106,42,115
216018039,65,121,29,57,100,42,114
216022704,62,123,29,58,95,41,112
216027369,61,124,28,62,97,40,108
216032229,59,137,29,76,96,39,104
216036992,57,129,29,78,104,38,101
216041766,55,120,29,85,100,37,99
216046607,53,111,28,83,93,36,97
216051381,53,104,29,79,105,36,98
216056159,50,97,29,78,111,35,100
216060983,49,91,29,81,112,35,103
216065802,48,86,28,78,103,34,107
216070575,49,88,29,76,101,34,112
216075394,50,83,28,73,95,33,117
216080167,49,78,29,71,87,33,123
216084940,48,75,28,68,87,33,128
216089760,47,70,28,66,96,34,132
216094533,46,67,28,65,94,35,132
216099323,46,64,29,66,90,35,128
216104016,44,61,28,67,88,35,130
216108871,44,58,29,68,84,35,130
216113725,43,56,28,76,88,34,145
216118580,42,54,29,98,84,34,152
216123435,42,52,28,121,77,33,157
216128297,42,51,28,119,73,33,162
216133151,41,49,28,120,82,33,166
216138006,41,48,28,117,81,32,162
216142860,40,47,28,109,79,32,169
216147715,40,46,28,104,81,32,170
216152570,40,45,28,100,78,31,173
216157425,40,45,28,98,82,31,176
216162280,40,44,28,97,88,31,173
216167135,39,43,28,93,95,31,186
216171989,39,43,28,111,89,31,188
216176843,39,42,27,141,84,31,192
216181697,39,42,28,141,80,31,195
216186569,39,41,28,141,78,31,198
216191422,39,41,28,133,72,30,202
216196276,39,40,28,129,69,30,206
216201130,38,40,28,132,65,31,210
216205983,39,40,28,136,67,30,216
216210837,38,39,29,137,74,30,220
216215691,38,39,28,133,81,30,226
216220544,38,38,27,132,79,30,231
216225398,38,38,28,136,82,30,238
216230252,38,38,28,167,76,30,243
216235106,38,38,28,201,71,30,245
216239960,38,38,29,194,72,30,255
216244815,38,37,29,182,68,30,264
216249651,38,37,29,172,72,29,272
216254504,38,37,29,161,69,30,280
216259358,38,37,29,160,67,30,288
216264213,38,37,28,158,62,30,296
216269067,38,37,29,154,59,30,303
216273920,38,37,29,155,56,29,310
216278775,38,37,29,173,53,29,317
216289350,38,37,29,183,48,30,329
216294092,38,36,28,183,54,30,332
216298881,38,36,29,188,52,30,336
216303671,38,36,28,203,49,30,338
216308461,38,36,28,208,48,30,340
216313252,38,36,28,197,45,30,341
216318044,38,36,29,187,43,30,342
216322836,39,36,28,179,41,30,340
216327634,38,36,28,173,41,30,338
216332473,38,36,29,165,39,30,334
216337312,38,37,29,154,37,30,333
216342152,38,36,28,147,36,29,329
216346991,38,36,28,140,34,30,325
216351831,38,36,28,132,33,30,321
216356670,38,36,28,128,32,29,316
216361510,38,36,29,126,31,30,311
216366349,38,36,28,126,30,29,306
216371189,38,36,29,125,29,30,300
216376029,38,36,28,132,28,31,296
216380869,38,36,28,145,28,31,291
216385709,38,36,29,138,26,32,286
216390550,38,36,29,130,26,32,282
216395390,38,36,28,123,26,32,277
216400231,38,35,28,116,25,32,273
216404165,38,36,29,110,25,33,269
216409006,38,36,29,103,25,34,266
216413846,38,36,29,97,24,33,261
216418742,38,36,29,92,23,33,256
216423591,38,36,29,88,23,32,251
216428431,38,36,29,83,23,35,247
216433293,38,36,29,79,23,34,244
216438134,37,36,29,76,23,35,240
216442975,38,36,29,73,23,35,234
216447816,38,36,29,73,22,35,228
216452658,38,36,29,70,22,35,223
216457499,38,36,29,68,22,36,217
216462342,38,36,29,66,22,36,210
216467183,38,36,29,64,22,34,203
216472024,38,36,28,62,22,35,196
216476763,38,36,29,60,22,34,189
216481606,39,36,29,59,22,34,182
216486447,38,36,29,58,21,34,174
216491287,38,36,29,56,21,34,165
216496129,38,36,29,56,22,35,157
216500972,39,36,29,57,21,34,150
216505812,56,36,29,59,21,35,144
216510653,58,36,29,58,21,35,139
216515496,65,36,29,58,21,36,134
216520338,62,36,29,58,21,36,129
216525179,59,37,29,57,21,35,125
216530020,57,36,29,57,21,35,121
216534863,56,36,29,57,21,36,118
216539706,54,37,29,57,21,36,117
216544546,57,37,29,56,21,35,117
216549291,59,37,29,56,21,35,121
216554051,59,37,29,59,22,35,124
216558812,66,37,29,59,21,34,128
216563572,72,36,29,57,22,34,133
216568332,78,37,29,57,21,34,140
216573093,78,37,29,55,21,33,146
216577853,76,37,29,54,22,33,153
216582614,72,37,29,54,25,33,160
216587374,69,37,29,53,26,34,167
216592135,66,37,29,53,30,33,173
216596895,63,38,29,52,29,33,180
216601671,61,37,29,52,29,32,185
216606432,59,38,29,52,30,32,191
216611206,57,38,29,52,29,32,196
216615967,55,37,29,51,31,32,201
216620728,54,37,28,53,31,32,205
216625711,53,37,29,55,30,30,209
216630619,51,37,29,56,30,31,214
216635527,50,37,29,56,29,31,218
216640436,49,37,29,56,28,31,221
216645344,48,37,29,55,28,31,223
216650253,46,37,29,55,27,31,225
216655161,46,37,28,56,26,31,225
216660069,45,37,29,55,25,31,224
216664978,44,37,29,54,25,33,221
216669887,44,36,29,54,25,33,217
216674799,43,37,29,54,28,33,212
216679707,42,36,29,53,27,33,206
216684619,42,37,29,53,27,33,199
216689527,41,36,29,52,26,32,192
216694440,41,36,29,52,26,32,185
216699349,41,36,29,54,25,32,178
216704339,40,37,29,58,24,32,172
216709328,40,36,28,60,24,31,166
216714317,40,37,28,60,24,31,160
216719307,40,36,29,58,24,31,155
216724296,40,36,29,57,23,31,152
216729285,39,36,29,56,23,31,149
216734274,39,37,29,56,23,30,147
216739263,39,36,29,57,22,30,147
216744252,39,36,28,56,22,30,148
216749241,39,36,29,56,22,30,149
216754230,39,36,28,56,22,30,152
216759219,38,35,29,56,22,30,156
216764208,38,36,29,56,22,31,160
216769197,38,36,29,55,21,30,164
216774186,38,36,29,55,21,30,168
216779100,38,36,29,53,21,30,173
216784094,38,36,29,53,21,30,177
216789082,38,38,29,52,21,30,182
216794071,38,40,29,51,21,31,195
216799059,39,43,29,51,21,31,194
216804047,38,45,28,50,21,31,218
216809035,38,44,29,50,21,31,218
216814026,38,45,29,49,21,30,230
216819014,38,44,29,49,21,31,229
216824002,38,44,29,49,21,30,236
216828991,38,43,29,49,21,30,239
216833982,38,43,29,49,21,31,249
216838970,38,42,29,49,22,31,278
216843958,38,42,29,48,20,30,296
216848949,38,41,29,48,21,30,297
216853940,39,46,29,48,21,30,294
216858007,38,61,29,48,21,31,297
216862997,38,81,28,48,21,31,285
216867988,41,85,29,48,21,31,281
216872979,41,80,28,49,21,32,273
216877967,41,85,29,49,21,32,266
216882957,40,82,28,50,21,32,257
216887948,41,80,28,50,21,32,251
216892939,42,78,29,50,21,32,248
216897929,48,82,28,50,21,31,243
216902919,47,82,28,51,22,33,237
216907910,46,94,29,54,24,33,230
216912901,47,96,29,54,25,33,223
216917893,57,100,29,54,28,36,213
216922888,62,103,29,54,30,41,202
216927883,59,112,29,54,29,50,193
216932800,64,106,29,56,30,54,185
216937793,62,105,29,56,43,58,179
216942787,60,105,29,56,49,59,171
216947781,58,121,29,59,51,61,169
216952775,56,123,28,61,95,70,178
216957769,54,118,29,67,135,71,179
216962764,53,110,29,65,192,81,204
216967758,54,105,29,66,231,80,206
216972752,57,106,28,67,216,79,208
216977747,61,102,28,67,236,74,202
216982741,59,108,28,66,241,74,193
216987735,64,110,29,65,282,74,184
216992729,78,117,29,64,276,72,176
216997724,75,115,29,67,251,70,166
217002718,82,111,28,69,241,66,158
217007576,81,105,29,72,271,66,151
217012571,78,98,29,69,256,67,145
217017565,77,108,29,67,247,66,139
217022559,78,115,29,67,250,71,135
217027553,79,120,29,67,234,67,131
217032547,80,137,29,65,229,64,126
217037541,82,132,28,63,226,62,121
217042536,80,127,29,64,204,59,117
217047530,75,119,28,71,186,56,113
217052524,71,112,29,75,173,53,117
217057518,68,106,28,87,160,51,118
217062512,65,98,28,87,150,50,122
217067506,62,93,28,88,137,47,126
217072517,59,91,29,88,124,45,130
217077542,58,96,29,92,113,44,132
217082595,58,98,29,88,106,42,133
217087589,64,107,28,83,98,41,132
217092598,70,125,29,79,100,40,129
217097592,69,121,29,76,100,39,126
217102600,67,112,29,76,111,38,123
217107629,64,104,29,74,109,38,120
217112633,61,97,29,81,101,37,120
217117673,59,90,29,90,96,36,121
217122666,56,84,29,86,91,36,122
217127663,54,80,29,83,86,35,135
217132663,53,75,28,81,86,35,145
217137657,51,71,29,82,100,36,154
217142651,50,67,29,82,103,37,163
217147644,49,64,28,80,105,36,171
217152638,48,61,28,82,98,35,177
217157414,46,58,29,87,90,35,182
217162325,46,56,29,86,84,35,185
217167237,45,54,28,86,78,34,185
217172150,44,52,29,82,72,34,185
217177062,43,50,29,78,68,34,184
217181974,43,49,29,77,64,33,183
217186886,42,48,28,77,63,33,189
217191821,42,47,28,77,61,32,188
217196732,41,46,28,75,60,32,189
217201652,41,45,28,73,57,32,189
217206580,41,45,28,73,54,32,188
217211495,41,44,28,70,52,31,186
217216406,40,44,28,69,53,31,186
217221318,40,43,28,69,49,31,184
217226232,40,43,28,67,49,31,184
217231387,40,42,28,64,56,30,182
217236388,39,41,28,69,53,30,181
217241383,39,41,29,74,54,30,172
217246379,39,40,28,72,54,30,171
217251374,39,40,28,71,55,30,181
217256368,39,40,28,72,83,33,182
217261364,39,39,28,72,92,33,183
217266360,37,39,28,70,101,34,186
217271355,38,39,28,69,102,33,187
217276350,38,38,28,69,97,33,188
217281346,38,38,29,68,91,32,188
217286342,38,38,28,66,87,32,189
217291337,38,38,28,67,87,32,190
217296334,38,38,29,66,110,33,191
217301329,38,37,28,67,125,33,193
217306308,38,37,28,65,130,34,195
217311387,38,37,28,65,121,33,199
217316466,38,37,28,73,114,32,202
217321544,38,37,29,87,109,33,207
217326623,38,37,28,87,107,33,212
217331702,38,37,29,86,102,34,216
217336781,38,37,29,89,95,34,221
217341869,38,37,29,88,88,33,226
217346953,39,37,28,86,81,32,230
217352032,38,36,29,93,78,32,233
217357121,38,36,29,98,78,32,235
217362200,38,37,29,98,74,32,236
217367278,38,36,29,100,69,32,236
217372373,38,36,28,107,64,31,236
217377452,38,36,29,144,60,32,234
217382531,37,37,29,195,58,31,233
217387489,38,36,28,214,54,31,231
217392567,38,36,28,212,51,31,229
217397645,38,36,29,225,48,31,228
217402724,39,36,29,226,46,30,226
217407802,38,36,28,260,44,31,224
217412880,38,36,28,345,44,31,222
217417958,38,36,28,341,43,31,221
217423036,38,36,29,421,41,33,218
217428114,38,36,28,508,39,34,216
217433192,38,36,29,497,37,35,214
217438270,38,36,28,521,36,36,211
217443349,38,36,29,500,39,36,207
217448426,38,37,29,496,37,40,201
217453504,38,36,29,530,35,42,199
217458582,38,36,29,576,34,44,196
217463521,38,36,29,545,32,45,192
217468599,38,36,28,529,31,44,189
217473677,38,36,28,509,30,43,186
217478761,38,36,29,542,29,42,183
217483839,38,36,29,534,28,41,181
217488916,38,36,29,595,28,40,179
217493994,38,36,29,556,26,39,179
217499072,38,36,29,510,26,38,178
217504149,38,36,29,467,26,39,177
217509227,39,36,29,422,25,40,177
217514306,38,36,29,386,25,42,174
217519384,38,36,29,349,24,41,170
217524462,38,36,29,316,25,40,165
217529540,38,36,29,286,24,39,159
217534620,38,36,29,261,24,41,153
217539579,38,37,29,240,23,41,147
217544656,38,37,29,220,23,40,140
217549735,38,37,29,202,23,40,135
217560533,38,37,29,169,22,39,125
217565500,38,37,29,156,22,38,120
217570511,38,37,29,145,23,37,116
217575524,38,36,29,136,22,36,113
217580536,38,36,29,126,22,36,110
217585550,38,36,29,119,22,36,106
217590564,46,36,29,112,22,36,101
217595578,59,37,29,106,22,37,100
217600598,63,37,28,101,22,37,98
217605660,63,37,29,97,22,42,97
217610722,68,37,29,92,21,44,99
217615784,75,37,29,87,21,44,101
217620751,80,37,29,85,22,46,105
217625813,76,37,29,81,21,47,108
217630875,72,37,30,77,22,48,110
217635937,72,37,29,75,24,47,113
217641000,75,37,29,73,24,45,117
217646063,72,37,29,70,24,43,122
217651126,69,37,29,68,23,42,129
217656189,69,37,29,65,24,41,135
217661252,77,38,29,63,23,40,143
217666315,84,37,29,61,23,40,150
217671378,84,37,29,60,23,40,158
217676441,79,37,29,59,23,39,165
217681504,75,37,29,61,23,38,171
217686568,71,37,29,62,23,37,177
217691631,67,37,28,60,23,37,181
217696695,65,37,29,60,23,35,186
217701638,61,37,28,62,23,35,189
217706701,59,37,29,62,22,34,192
217711771,58,37,29,63,22,34,194
217716833,56,37,28,65,22,33,195
217721895,54,37,29,63,21,34,196
217726958,53,36,28,61,22,34,196
217732022,51,37,29,61,22,34,196
217737085,50,37,28,61,22,34,195
217742150,49,36,29,59,23,35,194
217747218,47,36,28,58,22,35,192
217752281,46,37,29,57,22,34,190
217757345,48,37,29,56,22,34,185
217762411,47,37,29,58,22,34,178
217767474,46,37,29,58,23,33,171
217772537,45,37,28,59,23,33,163
217777424,45,37,29,62,23,33,155
217782404,44,37,29,62,22,32,149
217787382,43,37,29,61,22,32,143
217792359,42,37,28,63,23,32,137
217797339,42,37,29,62,22,32,133
217802338,42,37,29,61,22,32,127
217807316,41,37,29,59,22,32,122
217812295,41,37,29,58,22,31,118
217817275,41,36,29,57,22,32,115
217822256,41,37,29,57,22,31,113
217827234,40,37,28,65,21,31,111
217832214,40,37,29,70,22,31,110
217837194,40,36,28,70,21,30,111
217842174,40,37,29,68,21,30,111
217847153,39,36,28,73,21,30,113
217852134,40,36,29,97,21,30,116
217857296,39,36,28,120,21,30,119
217862330,39,36,29,119,21,30,122
217867361,39,37,28,115,21,30,129
217872392,38,36,29,107,21,30,138
217877423,38,36,29,100,21,30,150
217882455,38,36,28,97,20,30,162
217887486,38,37,29,93,21,30,180
217892518,38,36,28,89,21,30,182
217897550,38,36,28,85,21,30,184
217902582,38,37,29,82,21,30,201
217907633,38,39,28,82,21,30,225
217912664,38,40,29,80,21,30,257
217917696,38,39,28,85,22,30,277
217922728,38,40,28,110,35,30,268
217927761,39,40,29,105,42,30,275
217932731,38,42,29,100,52,30,265
217937846,39,43,29,95,50,30,259
217942960,40,44,28,94,48,31,256
217948075,42,46,28,92,45,31,257
217953190,41,47,28,87,42,31,254
217958318,43,59,28,83,40,31,247
217963432,42,67,28,80,38,32,252
217968547,42,80,28,76,38,31,238
217973662,42,75,28,74,40,31,230
217978777,43,72,29,73,39,31,227
217983891,45,72,29,71,37,31,230
217989006,45,77,28,70,35,32,222
217994121,45,77,29,68,33,32,215
217999235,49,99,29,66,33,36,204
218004350,56,112,28,64,33,37,194
218009459,64,135,29,61,44,37,184
218014572,72,134,29,64,49,37,176
218019686,73,145,28,66,50,37,168
218024800,75,165,29,68,71,38,160
218029913,75,162,28,68,93,43,153
218035026,75,158,28,68,122,44,146
218040140,70,172,28,66,118,46,144
218045254,67,177,28,66,111,48,144
218050368,66,168,28,68,110,53,141
218055496,75,156,28,66,105,50,137
218060635,72,143,29,67,109,54,136
218065749,71,132,28,70,165,59,136
218070864,68,126,29,81,208,57,137
218075979,72,121,28,82,223,65,134
218081093,80,126,29,79,210,66,130
218086147,90,128,28,80,195,63,131
218091260,85,150,29,77,192,61,128
218096374,82,159,28,75,196,58,126
218101488,87,159,29,79,197,58,127
218106604,82,154,29,76,201,56,127
218111717,79,142,28,79,197,53,126
218116830,75,132,29,91,186,51,131
218121945,71,130,29,88,175,49,127
218127061,68,129,29,91,164,47,125
218132174,64,121,29,88,182,50,120
218137287,62,113,28,89,210,49,116
218142403,61,128,29,96,249,50,112
218147519,61,135,29,96,245,51,109
218152632,58,133,28,98,223,48,106
218157747,57,122,29,92,204,47,102
218162780,58,122,28,89,185,45,100
218167922,69,135,28,103,168,44,98
218173060,80,160,28,116,153,42,98
218178202,75,152,28,109,142,41,100
218183344,71,141,28,115,132,39,102
218188485,68,129,28,118,121,38,104
218193625,64,120,29,132,110,37,106
218198766,62,110,28,126,101,36,109
218203908,59,103,29,129,94,36,112
218209049,57,95,28,126,86,35,114
218214192,55,89,28,117,83,35,117
218219338,53,83,28,109,78,34,119
218224483,51,78,29,103,77,35,121
218229628,50,73,28,97,78,34,123
218234729,49,69,28,91,72,34,125
218239848,47,66,28,87,68,34,126
218244968,46,62,28,82,62,33,126
218250088,45,60,28,78,58,33,127
218255207,45,57,28,74,54,33,127
218260327,44,55,28,72,50,32,126
218265446,43,53,28,69,48,32,127
218270565,43,51,28,67,45,32,128
218275685,42,50,28,66,42,32,128
218280820,42,49,28,64,43,32,129
218285940,41,48,28,62,41,32,130
218291060,41,47,28,61,41,32,131
218296179,41,46,28,59,40,32,132
218301299,40,45,28,58,39,32,133
218306418,40,45,28,58,38,31,134
218311538,40,44,29,56,40,31,136
218316613,40,44,28,56,42,31,141
218321758,39,43,28,57,40,31,138
218326903,39,42,28,56,38,31,138
218332048,39,42,28,55,36,32,137
218337193,39,41,28,55,40,32,135
218342338,39,41,28,60,41,32,134
218347488,39,41,28,65,48,32,132
218352633,38,40,28,65,47,32,131
218357778,38,40,28,67,49,31,129
218362923,38,38,28,69,50,31,128
218368068,38,39,28,75,49,32,125
218373235,38,39,28,77,49,32,123
218378396,38,38,28,79,58,33,122
218383548,38,38,28,81,59,32,120
218388693,38,38,28,78,54,32,118
218393710,38,38,28,79,52,32,115
218398772,38,37,28,80,49,32,112
218403832,38,38,28,90,49,31,108
218408891,38,37,28,96,59,31,104
218414001,38,37,29,98,62,31,101
218419061,38,37,28,108,61,31,98
218424122,38,37,29,110,62,31,96
218429205,38,37,29,129,59,31,94
218434270,38,37,28,154,56,31,92
218439330,38,37,28,162,54,31,90
218444390,38,37,28,196,51,30,88
218449450,38,37,28,218,48,31,87
218454509,38,37,28,214,48,31,86
218459569,38,37,29,244,45,30,86
218464629,38,37,28,269,43,30,85
218469689,38,37,28,262,40,30,85
218474439,38,37,28,260,38,30,85
218479073,38,37,28,253,38,30,84
218483750,38,36,28,240,37,30,84
218488419,38,36,28,258,36,31,84
218493089,38,36,29,263,34,29,84
218497758,38,36,29,288,37,30,85
218502427,38,36,29,286,36,31,86
218507102,38,36,29,279,34,30,89
218511773,38,36,29,293,33,32,90
218516456,38,36,28,274,32,33,94
218521124,37,36,28,266,31,34,98
218525794,38,36,29,265,30,36,103
218530465,38,36,28,258,29,37,109
218535135,38,36,29,247,28,37,115
218539804,38,35,29,227,27,38,123
218544456,39,35,29,210,26,39,130
218549207,38,36,29,194,26,37,138
218553958,38,36,29,179,26,36,146
218558709,38,36,29,165,25,36,153
218563461,38,36,28,153,24,36,158
218568213,38,37,30,142,24,35,163
218572974,38,36,29,132,24,36,167
218577727,38,36,29,125,24,35,168
218582478,38,36,29,120,23,38,168
218587230,38,36,29,116,23,38,166
218591982,38,36,29,109,23,39,165
218596734,38,36,29,103,23,39,162
218601486,37,36,29,97,23,38,158
218606238,38,36,29,92,22,38,152
218611005,38,36,29,88,22,38,147
218615781,38,36,29,84,22,37,141
218620532,38,36,29,80,22,36,135
218625283,38,36,29,77,22,35,129
218630034,38,36,29,75,22,35,124
218634785,39,36,29,72,22,35,120
218639536,43,36,29,70,21,36,117
218644287,43,36,29,68,21,35,113
218649038,42,36,29,67,21,36,110
218653789,51,36,29,66,21,37,107
218658540,50,36,29,65,22,39,105
218663291,51,37,29,63,21,41,101
218668042,51,37,29,62,21,42,99
218672793,50,37,29,61,22,42,98
218677544,49,37,29,60,22,42,94
218682295,55,37,29,59,22,42,92
218687047,54,37,29,58,22,41,91
218691714,57,37,29,57,22,39,89
218696465,57,37,29,57,21,38,89
218701216,57,37,29,56,22,38,90
218705967,56,37,29,55,22,37,91
218710718,54,36,29,54,21,37,93
218715480,53,37,29,53,21,36,95
218720231,51,37,29,53,21,36,98
218724982,50,36,29,53,21,35,100
218729733,49,36,29,53,21,35,102
218734484,48,36,28,53,21,33,104
218739235,47,37,28,55,21,34,105
218743986,46,36,29,55,21,33,106
218748737,45,37,29,54,21,33,108
218753488,44,36,29,55,21,32,108
218758239,44,36,29,55,21,32,108
218762990,43,37,29,55,22,32,109
218767637,43,36,28,57,21,32,109
218772387,42,36,28,56,21,32,109
218777137,42,36,29,56,22,31,110
218781887,41,36,29,58,21,31,110
218786637,41,36,29,58,21,31,110
218791387,41,36,29,57,22,31,110
218796137,40,36,29,56,21,31,109
218800889,40,36,29,55,21,31,107
218805639,41,36,29,55,21,32,105
218810389,40,36,29,54,21,32,101
218815140,40,36,29,53,21,32,99
218819891,39,35,29,53,21,32,97
218824642,39,36,29,52,21,32,94
218829392,39,36,29,52,21,32,93
218834145,39,36,29,53,21,33,91
218844564,38,36,28,51,21,32,87
218849101,39,36,28,52,21,32,86
218853787,39,36,28,52,21,32,84
218858475,38,36,29,52,21,31,83
218863163,38,36,29,51,21,31,82
218867851,39,36,29,51,21,30,81
218872540,38,36,29,51,21,30,79
218877228,38,36,29,50,22,30,79
218881945,38,36,29,50,21,30,78
218886682,38,36,29,50,21,30,77
218891419,38,36,29,50,21,30,75
218896156,38,36,28,50,21,30,76
218900893,38,36,29,50,21,30,75
218905631,39,36,29,49,21,30,76
218910368,38,36,29,49,21,30,82
218915105,38,36,28,50,21,30,82
218919843,37,36,28,50,21,30,84
218924475,38,36,29,51,21,30,85
218929212,38,36,29,51,21,30,92
218933949,38,38,28,50,21,30,96
218938686,38,38,29,50,21,30,108
218943423,38,40,29,50,21,30,113
218948160,38,40,29,49,21,30,126
218952897,39,42,29,48,21,30,126
218957634,38,42,28,48,21,30,132
218962371,38,42,29,48,21,30,149
218967108,38,45,29,48,21,30,170
218971862,39,44,28,48,21,30,200
218976599,39,43,29,48,21,29,201
218981339,38,42,28,49,21,30,198
218986076,38,42,28,48,21,30,196
218990813,39,46,29,48,22,30,192
218995415,40,50,28,48,32,30,194
219000070,40,59,29,48,46,30,188
219004726,40,57,29,50,56,30,186
219009382,40,61,29,50,65,31,178
219014039,39,71,29,50,62,31,170
219018695,40,70,28,51,76,30,164
219023351,41,74,29,52,82,31,160
219028009,42,74,29,52,113,32,156
219032665,44,70,29,51,120,34,151
219037321,45,75,29,52,111,35,149
219041978,49,81,28,52,102,35,149
219046636,49,93,29,51,96,34,148
219051293,48,101,29,58,90,34,145
219055949,52,113,29,60,83,33,139
219060606,56,108,29,59,81,34,133
219065563,64,110,29,63,91,38,128
219070318,64,108,29,62,92,37,124
219075083,66,111,28,64,92,39,120
219079851,70,116,29,67,88,48,116
219084618,69,125,29,71,101,48,115
219089384,81,147,28,70,119,52,117
219094150,77,147,29,70,127,54,114
219098917,74,144,28,70,166,57,109
219103684,71,133,28,73,179,58,106
219108450,68,126,29,72,171,56,107
219113217,71,119,28,71,169,58,112
219117985,68,122,28,69,196,60,120
219122752,76,136,29,69,230,60,122
219127519,81,136,29,68,242,58,119
219132286,78,156,28,66,287,62,118
219136996,79,162,28,70,279,62,114
219141843,77,175,29,78,264,64,110
219146691,74,186,29,78,274,66,106
219151539,77,207,29,78,275,68,105
219156399,77,190,29,80,299,72,102
219161247,73,175,29,83,287,72,100
219166115,69,161,28,85,281,68,97
219170963,67,148,29,84,262,65,94
219175811,63,139,29,84,245,65,92
219180659,60,128,28,84,233,61,90
219185507,70,120,28,86,216,58,89
219190356,70,126,29,83,208,56,88
219195208,69,147,28,80,193,53,85
219200070,69,152,29,78,177,51,84
219204918,68,153,28,86,161,49,83
219209705,78,154,28,91,147,47,81
219214552,75,149,29,89,136,46,80
219219408,72,138,28,90,131,45,79
219224255,67,127,29,94,129,45,78
219229103,65,118,29,90,118,43,78
219233950,62,111,29,94,108,42,77
219238797,60,102,28,98,99,41,76
219243645,58,96,28,102,97,40,76
219248564,56,101,28,122,100,39,75
219253411,54,114,29,130,106,38,74
219258264,52,117,28,131,104,37,74
219263112,51,110,28,130,96,36,73
219267959,51,116,29,127,88,36,73
219272807,54,122,29,125,82,36,74
219277654,53,117,29,120,77,36,75
219282418,52,109,29,112,76,34,76
219287266,50,101,28,106,77,34,75
219292113,49,95,29,100,77,34,74
219296960,48,89,28,96,72,34,73
219301807,47,83,28,92,67,33,72
219306655,47,79,29,90,63,34,71
219311502,45,74,28,93,59,33,71
219316349,45,70,29,89,55,33,70
219321196,44,67,29,86,52,33,70
219326043,43,64,28,82,48,32,70
219330902,43,61,28,78,45,32,70
219335750,42,58,28,76,45,32,70
219340598,42,57,29,75,44,32,69
219345445,41,57,28,73,42,32,69
219350292,41,55,28,70,41,31,69
219355141,41,54,28,68,38,32,69
219359886,40,52,29,65,37,31,69
219364733,40,51,28,65,36,31,67
219369580,40,50,28,67,36,30,68
219374429,40,49,28,65,40,30,68
219379276,40,48,28,66,37,30,68
219384123,39,47,28,70,36,30,67
219388971,39,46,28,69,35,30,68
219393820,39,45,28,69,34,30,68
219398668,39,44,28,74,34,30,68
219403515,39,43,28,71,34,30,68
219408365,39,42,28,70,33,30,67
219413214,38,42,28,70,31,30,68
219418062,38,41,29,73,30,30,67
219422910,38,41,28,74,32,30,67
219427759,38,41,28,73,31,29,67
219432608,38,40,28,72,30,30,67
219437375,38,40,28,74,29,30,67
219442224,38,39,28,71,29,30,67
219447074,38,39,29,69,31,30,67
219451923,38,39,28,67,30,30,67
219456773,39,38,29,66,38,31,67
219461624,38,38,29,66,42,31,67
219466477,38,39,29,66,41,31,67
219471330,39,38,29,70,39,31,66
219476182,38,38,28,73,39,30,66
219481034,38,37,28,81,40,31,66
219485887,38,37,29,84,45,30,66
219490740,38,37,29,85,43,30,66
219495592,38,37,28,85,41,30,67
219500445,38,37,28,89,38,30,69
219505297,38,37,28,92,37,30,71
219510150,38,37,29,102,36,30,74
219514900,38,37,29,116,35,30,76
219519751,38,37,28,115,36,30,75
219524603,38,37,28,144,36,30,77
219529455,38,37,28,161,34,30,85
219534307,38,37,29,183,34,30,90
219539159,38,37,28,180,34,30,96
219544011,38,36,28,173,34,30,100
219548863,38,36,28,182,34,30,106
219553715,38,36,29,185,33,30,112
219558567,38,36,28,178,31,31,119
219563419,39,36,28,167,30,30,125
219568271,38,36,29,157,29,30,131
219573123,38,36,28,149,29,31,139
219577975,38,36,28,141,28,34,145
219582842,38,36,29,136,27,34,152
219587555,38,36,29,129,26,34,158
219592324,38,36,28,126,26,36,164
219597114,38,35,28,123,25,38,169
219601910,38,36,29,123,25,38,176
219606719,38,36,29,117,25,40,180
219611494,38,36,29,114,24,40,185
219616280,38,36,28,108,24,40,189
219621054,38,36,29,102,23,40,194
219625823,38,36,29,96,23,39,194
219630601,38,36,29,91,23,38,195
219635370,38,36,29,87,23,40,200
219640144,37,36,28,83,23,38,202
219644919,38,36,28,79,23,38,204
219649725,38,36,28,76,23,39,204
219654502,38,36,28,74,24,41,202
219659603,38,36,28,74,24,41,202
219664484,38,36,28,71,23,42,205
219669372,38,36,28,69,23,42,206
219674271,38,37,29,66,23,42,206
219679152,38,36,28,64,22,41,204
219684032,38,36,28,63,22,40,203
219688913,38,36,29,62,22,40,201
219693793,38,35,28,60,22,39,197
219698674,38,36,29,58,22,39,192
219703564,38,36,28,58,23,38,188
219708446,38,36,29,58,25,37,183
219713327,38,36,28,58,25,37,177
219718208,38,36,29,57,24,36,170
219723090,38,36,29,58,24,36,164
219727971,38,36,29,63,24,36,155
219732852,38,36,28,62,24,35,147
219737671,38,36,28,61,23,35,142
219742636,45,37,29,61,24,35,136
219747615,49,36,29,61,23,35,131
219752577,55,37,29,60,23,35,126
219757541,57,36,29,60,23,36,122
219762505,56,36,29,58,23,37,118
219767468,54,37,29,57,23,39,114
219772430,53,36,29,56,23,41,111
219777395,51,36,29,55,23,40,108
219782360,52,36,29,54,23,40,105
219787323,54,36,29,53,22,39,101
219792286,65,37,29,53,22,38,98
219797251,68,36,29,52,22,37,96
219802216,70,37,29,52,23,38,94
219807179,67,38,29,51,26,38,93
219812144,65,38,29,51,26,37,93
219817028,61,37,29,50,25,37,92
219821991,60,37,29,51,25,36,91
219826955,57,37,29,50,24,35,91
219831919,55,37,29,52,24,34,91
219836900,52,37,29,52,24,34,91
219841880,51,37,29,52,24,33,90
219846854,50,37,29,51,27,33,90
219851825,49,37,29,52,26,33,90
219856808,48,37,29,52,26,33,89
219861771,47,37,29,52,25,32,89
219866734,46,37,29,53,25,32,88
219871707,45,37,28,52,24,32,87
219876671,44,37,29,53,24,32,87
219881635,44,37,29,53,24,32,86
219886599,43,37,29,53,24,32,86
219891563,43,36,29,54,24,33,87
219896427,42,37,29,55,25,32,87
219901390,41,37,29,55,29,35,85
219906354,41,36,29,57,33,35,83
219911318,41,36,29,57,32,35,82
219916282,41,37,29,56,31,34,80
219921246,40,37,29,55,30,34,79
219926209,40,36,28,55,29,34,78
219931173,40,37,29,55,28,33,78
219936136,40,37,29,54,27,33,76
219941100,40,36,28,53,27,33,76
219946063,39,37,28,52,26,32,75
219951034,39,36,28,52,25,32,74
219955998,39,37,29,52,25,32,73
219960962,39,36,29,52,24,31,73
219965926,39,36,29,55,24,31,72
219970890,39,36,29,57,24,31,72
219975771,38,36,29,56,23,31,71
219980751,38,36,29,59,23,31,71
219985714,39,36,29,61,23,30,71
219990677,38,36,29,62,23,30,70
219995640,38,36,29,62,23,30,70
220000603,38,36,28,64,22,31,70
220005566,38,36,29,65,22,31,71
220010529,38,35,29,63,22,31,73
220015492,38,36,29,61,22,30,75
220020455,38,36,28,60,21,30,78
220025418,38,36,28,59,21,30,80
220030381,38,36,28,58,22,30,86
220035345,38,36,29,57,21,30,87
220040308,38,37,28,56,22,30,98
220045273,38,36,29,55,21,30,96
220050236,38,38,29,55,22,31,101
220055099,38,40,29,53,21,30,112
220060064,38,42,28,53,21,30,111
220065029,38,45,29,54,22,30,119
220069992,38,45,28,57,21,30,128
220074955,38,44,28,56,21,30,125
220079922,38,44,28,55,21,30,126
220090555,38,45,29,53,21,30,176
220095427,38,44,28,52,21,30,175
220100324,38,47,29,52,22,30,179
220105221,38,47,28,51,22,30,188
220110120,38,55,29,51,22,30,182
220115019,39,53,28,52,21,31,174
220119918,38,55,29,51,21,31,166
220124817,38,65,28,50,21,31,159
220129744,38,68,29,50,22,31,152
220134649,40,64,29,49,22,31,147
220139622,40,63,29,49,22,31,144
220144595,40,61,29,49,22,31,139
220149567,40,62,29,49,23,30,136
220154540,40,73,28,49,30,32,133
220159512,40,76,29,49,38,33,129
220164485,47,80,28,49,45,32,126
220169458,50,99,28,49,44,33,122
220174432,56,97,29,53,42,35,117
220179405,58,91,29,53,40,36,114
220184379,65,87,29,53,39,35,110
220189352,65,100,28,53,40,36,107
220194326,61,98,28,53,38,35,104
220199299,64,94,29,53,45,35,101
220204273,61,92,29,58,57,40,99
220209246,59,98,28,56,54,40,100
220214013,59,108,28,61,57,40,104
220218905,60,107,29,60,57,40,111
220223797,58,108,28,59,60,43,114
220228699,56,104,28,58,66,42,111
220233591,64,103,29,58,87,42,107
220238482,67,102,28,57,124,42,104
220243374,65,96,28,56,162,46,101
220248266,62,90,28,57,162,46,99
220253159,60,91,29,56,165,46,97
220258051,59,88,27,56,164,46,96
220262943,57,83,29,57,181,46,95
220267837,55,83,29,57,191,44,93
220272729,53,82,28,57,190,51,92
220277621,52,85,28,56,177,50,90
220282515,51,98,29,55,166,49,86
220290868,50,126,28,55,145,47,83
220295568,49,130,29,58,133,45,81
220300197,48,128,29,61,123,44,81
220304860,48,123,28,80,129,43,79
220309522,54,115,29,81,126,42,78
220314183,53,110,28,77,118,41,77
220318846,54,105,29,75,116,40,77
220323510,52,99,28,72,118,40,75
220328171,51,94,29,69,123,41,74
220332834,50,88,29,67,119,40,72
220337497,54,88,29,66,112,39,71
220342161,53,93,28,64,110,39,70
220346822,53,94,29,63,106,38,70
220351485,51,100,29,61,117,38,70
220356149,50,103,29,69,113,36,69
220360729,49,111,29,73,105,36,69
220365471,49,104,28,89,100,36,69
220370214,47,102,29,87,92,35,68
220374958,45,96,29,87,85,35,69
220379702,45,92,29,86,81,34,68
220384445,45,87,28,86,74,34,68
220389189,44,82,29,85,70,33,69
220393933,43,78,28,82,66,33,70
220398676,43,74,28,78,81,35,69
220403427,42,70,28,78,81,36,68
220408172,42,67,29,79,77,35,68
220412916,41,64,28,79,76,34,68
220417661,41,61,28,79,70,34,67
220422405,41,60,28,75,66,33,66
220427150,41,58,29,74,62,34,65
220431895,41,59,28,83,59,33,63
220436536,44,61,28,96,61,33,62
220441279,43,60,28,94,60,34,61
220446023,42,58,28,93,56,34,60
220450767,42,57,29,88,53,33,59
220455510,42,55,28,86,50,32,58
220460254,42,53,28,83,48,33,58
220464998,41,52,28,80,48,32,57
220469742,41,50,28,76,46,32,56
220474485,41,49,28,74,45,31,56
220479229,40,48,28,72,53,32,56
220483972,40,47,28,75,53,32,55
220488735,40,46,28,74,53,31,54
220493497,40,46,28,73,66,31,55
220498257,39,45,28,70,72,31,54
220503016,39,46,28,69,78,31,54
220507776,39,49,28,67,73,31,54
220512398,39,49,28,68,69,30,54
220517141,39,48,28,68,68,30,54
220521884,39,46,28,66,67,30,54
220526628,38,45,28,64,62,30,54
220531371,39,45,28,62,58,30,54
220536114,38,44,28,62,55,30,55
220540858,38,43,28,66,52,30,55
220545601,38,42,28,66,49,30,55
220550344,38,42,28,67,47,30,55
220555088,38,42,28,68,46,30,55
220559832,38,41,28,67,43,30,55
220564575,38,40,28,72,42,30,55
220569319,38,40,28,76,39,30,55
220574062,38,40,28,75,37,30,55
220578818,38,39,28,73,36,30,55
220583561,38,39,29,70,36,30,54
220588202,38,39,29,69,34,29,53
220592945,38,38,29,72,38,30,53
220597687,39,38,28,72,37,30,54
220602430,38,38,29,72,40,30,55
220607175,38,38,29,80,41,30,56
220611917,38,37,28,82,41,30,57
220616660,38,37,29,84,39,30,57
220621404,38,37,28,85,37,30,57
220626149,38,37,29,87,35,30,58
220630891,38,37,29,88,34,30,59
220635634,38,37,28,90,34,29,58
220640379,38,37,29,89,37,30,59
220645124,38,37,28,92,35,30,60
220649867,38,37,29,87,34,30,62
220654611,38,37,28,90,32,29,64
220659356,38,36,30,92,31,30,66
220663980,38,37,29,97,30,30,69
220668723,38,37,28,100,29,29,71
220673468,38,36,28,102,28,30,73
220678213,38,36,29,117,28,30,76
220682958,38,36,28,112,27,30,78
220687702,38,36,29,108,26,29,81
220692448,38,36,28,103,26,29,85
220697193,38,36,29,98,26,29,88
220701938,38,36,29,93,28,29,93
220706685,38,36,29,93,27,29,97
220711434,38,36,28,90,26,30,103
220716183,38,36,28,90,26,29,109
220720932,38,37,29,96,25,29,116
220725680,38,36,29,97,25,31,122
220730429,38,36,29,96,25,30,130
220735178,38,36,29,95,24,33,137
220739820,38,36,29,95,24,34,144
220744568,38,36,29,92,24,34,151
220749316,38,36,29,88,23,34,157
220754065,37,36,29,84,23,34,163
220758813,38,36,29,80,22,33,167
220763561,38,36,29,76,23,33,170
220768309,38,36,29,73,22,33,171
220773057,38,36,29,72,22,33,172
220777805,38,36,29,71,22,33,171
220782553,38,36,29,71,23,32,169
220787300,38,36,28,68,22,35,166
220792048,38,37,29,69,22,36,163
220796796,38,37,29,70,22,37,159
220801544,38,37,28,69,21,36,154
220806292,38,37,28,68,22,36,148
220810875,38,37,29,66,21,36,142
220815540,38,37,28,64,21,35,136
220820205,38,37,28,62,21,35,131
220824870,38,37,28,62,21,35,126
220829536,38,37,28,61,21,35,122
220834215,38,37,29,59,21,34,118
220838884,38,38,28,58,21,34,115
220843549,38,39,29,57,21,34,111
220848242,40,39,28,56,21,34,108
220852907,40,39,28,57,21,34,105
220857596,40,40,28,57,21,33,102
220862268,40,39,29,56,21,33,100
220866965,39,39,29,57,21,32,98
220871630,44,38,29,59,21,32,96
220876307,49,38,29,59,21,32,94
220880989,51,38,29,60,21,33,92
220885846,49,38,29,59,21,34,90
220890609,52,38,29,58,21,34,88
220895383,50,38,29,57,21,34,87
220900161,55,38,29,56,22,36,85
220904952,68,38,29,56,22,36,83
220909754,74,38,29,54,22,37,82
220914585,70,37,29,54,22,36,82
220919386,67,37,29,53,22,36,80
220924160,64,37,29,53,22,36,80
220928934,61,37,29,52,22,35,80
220933708,59,37,29,52,22,35,79
220938482,57,37,29,51,22,34,79
220943273,55,37,29,50,21,34,80
220948048,53,37,29,49,22,34,80
220952821,52,37,29,50,22,34,81
220957595,51,37,28,49,22,33,81
220962246,49,37,29,49,22,33,80
220967103,48,37,29,49,22,32,79
220971958,47,37,29,49,21,32,80
220976816,46,37,29,49,21,32,81
220981679,45,38,29,49,21,31,81
220986536,45,37,29,50,21,31,81
220991391,44,37,29,49,21,31,81
220996246,44,37,29,49,21,31,80
221001104,43,37,29,49,23,31,78
221005961,43,37,29,49,23,31,77
221010816,42,37,29,49,23,30,77
221015672,42,37,29,49,23,31,76
221020530,41,37,29,50,22,31,75
221025399,41,38,29,50,22,31,74
221030255,41,37,29,49,22,31,74
221035113,41,37,29,49,22,32,73
221039864,40,37,29,49,22,31,72
221044721,40,37,29,50,22,32,72
221049577,40,36,29,49,21,32,71
221054434,39,37,28,49,21,32,71
221059291,40,37,29,49,21,31,70
221064148,39,36,29,49,21,30,70
221069004,39,36,29,49,22,31,70
221073861,39,36,29,49,21,31,69
221078720,39,36,29,49,21,31,69
221083590,39,37,29,48,21,30,69
221088447,39,37,29,48,21,30,70
221093303,38,36,28,48,21,30,69
221098160,38,36,29,48,21,30,73
221103017,39,37,29,47,21,30,77
221107873,39,36,28,48,21,30,76
221112730,38,36,29,48,21,31,79
221117481,38,36,29,47,21,30,102
221122338,38,37,28,49,21,30,103
221127194,38,38,29,49,21,30,102
221132051,38,38,29,50,21,30,115
221136908,38,40,29,50,20,30,119
221141764,38,40,29,50,21,30,120
221146621,38,40,29,50,21,30,135
221151477,38,40,29,52,21,30,130
221156336,38,41,29,51,21,30,126
221161193,40,41,28,54,21,30,122
221166050,40,41,29,58,21,30,117
221170906,39,42,28,64,21,30,114
221175763,39,43,29,62,21,31,112
221180619,39,42,29,62,21,30,122
221185476,39,42,29,61,21,30,120
221190331,39,42,29,59,21,30,118
221195187,39,43,29,58,21,31,114
221200043,39,44,29,58,21,31,116
221204904,39,55,29,57,21,30,112
221209760,39,67,29,56,21,31,110
221214668,38,73,28,56,20,30,106
221219524,39,72,28,55,21,31,102
221224379,41,70,29,56,21,30,101
221229235,41,72,28,56,20,30,98
221234092,42,81,28,60,21,30,96
221238948,42,86,29,75,21,30,94
221243804,44,81,28,77,21,30,92
221248660,45,80,29,76,21,30,90
221253516,44,77,29,74,21,30,88
221258372,44,74,29,74,21,30,86
221263228,43,71,28,74,21,30,90
221268002,42,83,28,73,22,30,88
221272858,42,87,29,70,22,30,86
221277715,43,88,28,72,22,29,89
221282571,43,83,29,73,30,30,106
221287427,43,78,29,73,39,31,107
221292283,42,97,29,71,41,33,104
221297141,45,113,29,76,80,32,101
221301997,45,137,29,85,98,33,98
221306853,44,141,28,91,128,35,96
221311710,44,148,29,98,128,35,93
221322288,50,158,29,97,159,37,97
221327034,50,152,29,94,164,37,98
221331825,52,162,29,105,189,39,98
221336617,53,162,29,114,208,40,103
221341410,52,157,28,126,208,41,109
221346201,50,153,29,126,201,40,118
221350994,49,141,29,120,203,39,126
221355787,48,133,28,138,194,38,132
221360586,47,124,29,140,182,37,142
221365427,52,118,28,144,180,36,146
221370268,59,116,28,143,189,36,149
221375109,58,110,28,133,177,35,153
221379950,56,117,29,124,165,34,156
221384791,55,120,29,117,152,35,158
221389632,53,123,28,113,152,34,159
221394474,52,125,28,109,149,34,157
221399315,54,125,28,103,151,34,155
221404157,53,118,28,98,145,34,163
221408999,54,112,29,98,142,34,178
221413840,52,104,29,97,141,34,195
221418478,51,109,28,100,134,33,214
221423238,50,108,28,98,123,32,235
221427999,49,107,28,100,114,32,255
221432759,56,112,28,100,111,32,275
221437519,59,114,29,116,102,32,288
221442279,61,113,27,117,93,32,299
221447038,58,107,28,110,86,32,304
221451828,56,102,29,109,82,32,302
221456588,54,95,29,109,76,32,304
221461348,53,89,29,148,71,32,296
221466108,51,84,28,188,66,32,289
221470868,50,79,28,234,66,32,280
221475628,49,78,28,238,65,31,267
221480388,48,83,28,243,63,30,254
221485433,50,92,29,230,85,30,241
221490340,52,111,28,226,97,32,227
221495249,55,124,29,210,111,32,216
221500156,53,133,29,195,116,32,205
221505063,51,126,28,183,107,31,195
221509974,50,117,29,173,102,31,186
221514884,49,109,29,163,106,31,179
221519790,47,102,29,151,100,31,177
221524697,46,95,29,146,103,31,182
221529606,46,89,29,143,98,31,173
221534515,45,84,28,136,91,31,165
221539422,44,82,29,131,86,30,158
221544329,44,79,28,132,78,31,151
221549238,43,82,28,134,80,31,144
221554148,42,79,28,138,75,31,138
221558960,42,75,29,137,70,31,131
221563949,41,71,29,133,66,30,125
221568939,41,67,28,134,84,31,121
221573929,41,64,29,135,98,34,116
221578916,40,61,29,136,117,33,113
221583906,40,59,28,147,117,34,109
221588896,40,56,28,153,121,33,105
221593886,40,54,28,144,129,33,103
221598875,39,52,29,134,129,34,101
221603865,40,53,29,125,121,34,99
221608855,41,57,29,117,111,33,98
221613845,41,67,28,111,102,33,95
221618835,41,71,29,106,94,33,93
221623825,41,67,29,101,89,33,91
221628815,40,64,28,95,82,33,90
221633690,41,64,28,89,76,33,88
221638680,41,62,28,86,77,32,87
221643670,41,60,28,81,89,32,85
221648660,41,57,28,77,96,33,84
221653650,40,55,29,79,94,32,82
221658640,40,53,29,83,101,33,81
221663640,40,52,28,88,95,32,79
221668630,40,50,29,86,98,32,76
221673620,39,48,28,88,94,32,76
221678610,39,48,29,90,86,31,74
221683617,39,51,29,87,79,31,73
221688608,41,60,29,83,73,31,73
221693598,41,65,29,80,68,31,70
221698588,44,65,29,78,63,31,69
221703591,43,62,28,74,61,31,70
221708581,42,60,29,71,70,31,69
221713439,42,57,29,69,72,31,69
221718429,41,55,28,66,72,32,69
221723419,41,54,29,65,66,31,68
221728409,41,52,28,64,62,31,68
221733399,40,50,28,64,58,31,68
221738389,40,48,29,63,54,31,68
221743380,40,48,29,61,50,30,68
221748370,40,48,29,60,47,30,67
221753360,40,53,28,61,44,30,67
221758349,40,68,28,62,42,30,66
221763339,40,68,29,61,40,30,65
221768329,41,70,28,59,38,30,63
221773319,41,66,28,57,36,30,62
221778309,41,63,28,56,34,30,62
221783298,40,61,28,56,33,30,62
221788288,40,59,29,55,32,30,62
221793163,40,57,28,55,30,30,62
221798152,40,55,29,53,29,30,63
221803141,40,56,28,53,29,29,63
221808130,44,61,28,53,28,29,64
221813119,43,64,28,53,27,29,63
221818108,43,67,28,53,26,29,62
221823097,43,74,29,53,26,29,61
221828085,44,82,29,52,25,29,61
221833076,44,77,29,51,25,29,61
221838065,43,73,29,50,24,29,61
221843054,43,69,29,50,24,30,67
221848043,42,66,28,50,23,29,69
221853034,42,63,28,50,24,30,74
221858023,41,60,29,49,23,29,81
221863012,41,57,29,50,23,30,80
221868003,41,53,28,51,23,29,78
221872862,40,53,28,50,22,29,77
221877851,40,51,29,49,22,30,76
221882840,40,51,29,50,22,30,76
221887832,40,48,29,50,22,30,75
221892824,40,47,28,49,22,30,77
221897813,40,45,28,49,22,30,82
221902804,39,45,28,50,22,30,84
221907796,39,44,28,49,22,30,93
221912788,39,43,29,50,22,30,102
221917777,39,42,28,49,22,30,100
221922769,39,42,29,54,22,30,97
221927761,39,41,29,54,22,30,95
221932753,39,41,29,54,22,30,93
221937743,38,40,28,53,22,30,91
221942735,38,40,28,53,22,30,89
221947727,38,39,29,52,22,29,88
221952601,38,39,29,51,22,30,86
221957593,37,39,29,50,22,31,85
221962588,38,37,29,50,23,31,83
221967583,38,38,29,50,22,31,82
221972577,38,38,29,50,21,31,81
221977571,38,37,29,50,21,30,80
221982566,38,37,28,49,21,31,78
221987561,38,37,29,49,21,30,77
221992556,39,37,29,49,22,30,75
221997551,38,37,29,50,22,30,74
222002546,38,37,29,52,22,30,74
222007541,38,37,29,54,22,30,74
222012536,38,37,29,53,22,30,75
222017531,38,36,29,54,21,30,76
222022526,38,37,29,53,22,30,77
222027521,39,36,29,53,22,30,79
222032299,38,36,29,52,22,30,81
222037212,38,37,29,51,21,30,81
222042125,38,36,29,51,22,30,82
222047038,38,36,28,51,22,30,82
222051951,38,36,28,51,21,30,83
222056864,38,36,29,50,21,30,84
222061777,37,36,29,50,21,30,84
222066690,38,36,29,50,21,30,85
222071602,38,36,29,49,22,29,85
222076515,38,36,29,49,22,30,85
222081428,38,36,29,49,22,29,85
222086344,38,36,29,48,22,30,86
222091257,38,36,29,48,22,29,86
222096181,38,36,29,48,21,30,87
222101094,38,36,29,49,22,30,88
222106014,38,36,29,49,23,31,89
222111120,38,36,29,49,22,30,90
222116147,38,36,29,48,22,30,92
222121157,38,36,28,48,22,30,93
222126151,38,36,29,48,22,30,94
222131154,38,36,28,48,22,30,94
222136163,39,36,29,47,22,30,96
222141158,38,36,28,48,23,31,96
222146163,38,36,29,50,22,30,97
222151166,38,36,29,50,22,30,97
222156181,38,36,29,51,22,30,99
222161184,38,36,29,50,23,30,98
222166178,38,36,29,50,23,30,98
222171180,38,36,28,50,22,30,97
222176214,38,35,29,50,26,30,97
222181225,38,36,29,49,28,30,97
222186219,38,36,29,49,32,31,96
222191075,38,36,28,48,31,31,96
222196153,38,36,28,48,30,31,95
222201230,38,36,28,47,30,30,94
222206308,38,36,29,48,29,31,92
222211387,38,36,29,48,29,31,91
222216464,38,36,29,48,28,30,90
222221567,38,36,29,48,27,30,88
222226644,38,36,28,48,27,30,86
222231724,38,36,29,47,27,30,84
222236816,38,36,29,48,27,30,82
222241893,38,36,29,47,28,30,80
222246972,38,36,28,47,27,30,79
222252053,38,36,28,47,33,30,77
222257130,38,36,29,47,36,30,75
222262208,39,36,28,47,37,30,73
222267288,38,36,29,47,39,30,72
222272248,38,36,28,49,40,30,70
222277324,38,36,28,48,40,30,69
222282403,38,36,29,48,39,30,66
222287483,38,36,28,48,37,30,65
222292562,38,36,28,47,44,30,63
222297639,38,36,29,47,45,30,61
222302718,38,36,28,47,47,31,62
222307798,38,37,28,47,47,31,62
222312877,38,37,28,47,49,31,62
222317956,38,37,28,47,50,30,63
222323035,38,37,28,46,56,31,63
222328115,38,38,28,47,53,30,64
222333195,38,37,29,46,50,30,64
222338274,38,36,29,46,47,30,64
222343354,38,37,29,46,44,30,64
222348433,38,37,29,46,45,30,64
222353374,38,37,28,46,48,31,64
222358454,38,36,28,47,50,32,64
222363540,38,36,28,47,60,32,65
222368620,38,36,29,47,57,32,65
222373699,38,36,28,48,57,32,64
222378784,38,36,28,49,55,32,65
222383864,38,36,29,49,54,32,65
222388943,38,36,28,48,51,31,65
222394022,38,36,29,48,51,31,65
222399102,38,36,28,48,48,31,65
222404181,38,36,29,48,48,31,65
222409260,38,36,29,47,48,31,65
222414339,38,36,29,47,49,31,65
222419419,38,36,28,48,46,30,65
222424498,38,36,28,49,43,31,65
222429577,37,36,29,50,45,31,65
222434536,38,36,29,50,49,32,65
222439614,38,36,29,50,49,31,66
222444693,39,36,29,49,54,31,65
222449772,38,36,29,49,53,30,64
222454850,38,36,29,51,50,31,65
222459929,38,36,29,52,48,31,65
222465008,38,36,29,52,49,31,65
222470087,38,36,28,53,47,31,65
222475165,38,36,29,54,50,32,65
222480244,39,37,29,53,55,31,65
222485323,38,38,29,52,52,32,65
222490402,38,37,29,53,55,32,66
222495480,38,37,29,52,54,31,65
222500559,38,37,28,53,51,32,65
222505637,38,37,29,52,51,31,64
222510716,37,37,28,53,48,32,64
222515656,38,37,29,54,45,32,63
222520735,38,37,28,53,46,32,61
222525814,38,37,28,53,45,32,62
222530892,38,37,28,55,46,31,62
222535971,38,37,29,56,47,31,62
222541050,38,37,29,56,44,31,62
222546129,38,37,28,59,42,30,63
222551208,38,36,28,59,42,30,63
222556288,38,37,29,58,39,30,63
222561367,38,37,29,58,37,29,63
222566446,38,40,29,57,35,30,64
222571525,38,43,29,56,34,30,64
222576607,38,43,28,56,32,30,64
222581685,38,44,29,54,31,30,64
222586764,38,43,29,55,30,30,64
222591845,38,42,29,54,29,31,64
222602524,38,42,29,54,27,30,65
222607490,38,42,29,53,27,30,65
222612501,38,42,28,52,26,30,64
222617514,38,52,29,52,26,30,65
222622527,38,54,28,52,26,30,66
222627540,43,59,28,52,25,30,65
222632554,48,61,29,51,25,31,65
222637568,50,61,29,51,24,31,63
222642588,52,60,28,50,24,31,63
222647650,50,57,28,50,23,31,64
222652712,49,55,28,51,23,31,64
222657775,48,55,28,66,23,31,64
222662837,46,54,29,80,23,30,64
222667899,46,51,29,84,24,31,64
222672962,45,50,28,112,24,32,64
222678024,45,51,28,129,25,32,64
222682865,44,55,29,143,24,32,64
222687843,43,66,28,133,24,32,64
222692820,43,68,28,124,30,32,64
222697798,46,71,28,136,34,31,64
222702776,52,71,28,162,38,31,64
222707753,53,68,28,180,50,31,64
222712731,51,66,28,169,53,32,64
222717709,50,64,28,157,72,31,65
222722687,48,61,28,153,85,31,64
222727664,48,58,28,142,84,30,65
222732642,46,56,28,140,127,33,65
222737619,45,54,28,144,123,33,64
222742611,45,52,28,149,134,33,64
222747604,44,51,28,144,165,33,65
222752581,44,58,28,139,157,34,65
222757819,43,60,28,142,175,34,68
222762849,44,70,28,138,160,33,70
222767877,44,70,28,133,145,33,73
222772905,53,69,29,132,132,33,76
222777933,61,67,28,132,122,32,77
222782962,62,68,29,133,122,33,77
222787990,60,65,29,126,133,33,78
222793019,58,62,28,120,132,34,78
222798047,56,59,28,115,126,33,78
222803077,54,57,28,108,118,33,78
222808105,52,55,28,102,117,33,77
222813133,50,53,28,96,110,33,75
222818162,49,51,29,91,106,33,74
222823193,48,50,29,87,99,32,73
222828220,47,50,28,85,92,32,70
222833226,46,49,28,84,95,33,68
222838339,45,47,29,92,126,34,68
222843452,44,46,28,113,140,36,68
222848562,44,45,28,120,142,36,68
222853673,43,44,28,115,150,36,68
222858786,42,43,28,120,144,35,67
222863899,42,42,28,131,134,37,67
222869009,42,42,28,123,122,36,67
222874122,41,41,29,114,111,35,67
222879235,41,41,28,107,103,35,66
222884348,41,40,28,101,107,34,67
222889459,40,40,28,111,109,34,66
222894572,40,40,28,125,119,34,66
222899686,40,40,28,120,124,34,66
222904799,39,39,28,112,114,34,66
222909912,39,39,28,106,106,34,66
222914138,39,38,28,105,100,33,66
222919276,39,38,28,102,116,34,66
222924414,39,38,28,102,120,35,66
222929553,39,38,28,102,130,36,66
222934691,39,37,28,100,131,36,66
222939829,38,38,28,101,120,36,66
222944972,38,37,28,108,110,36,66
222950110,38,37,28,106,104,34,65
222955249,38,37,28,103,127,36,66
222960388,38,37,28,119,133,35,65
222965538,38,37,28,134,134,35,66
222970677,39,37,28,170,164,39,65
222975816,38,37,28,189,231,45,66
222980955,38,37,28,189,269,50,65
222986094,38,37,28,180,251,50,65
222991105,38,37,28,169,228,47,65
222996218,38,37,28,155,210,45,65
223001331,38,36,28,145,201,44,66
223006444,38,37,28,135,186,43,66
223011556,38,36,29,129,171,42,65
223016669,38,36,28,123,157,40,65
223021782,38,36,29,119,173,42,68
223026912,38,36,28,122,183,41,74
223032025,38,36,29,119,166,40,74
223037138,38,36,28,117,158,40,73
223042250,38,36,29,111,153,39,72
223047363,38,36,28,108,162,41,72
223052476,38,36,29,114,149,40,72
223057589,38,36,29,115,137,38,73
223062702,37,36,28,112,129,37,73
223067733,38,36,28,113,128,38,74
223072870,38,36,29,110,119,37,74
223078008,38,36,29,112,109,37,75
223083145,38,36,29,107,101,36,75
223088283,38,36,29,103,102,37,75
223093421,38,36,29,99,110,37,75
223098559,38,36,29,93,105,36,75
223103697,38,36,29,89,96,36,74
223108835,38,36,29,85,92,34,73
223113972,37,36,29,85,121,37,72
223119110,38,36,29,83,140,38,71
223124248,38,36,29,79,143,39,70
223129387,38,36,28,76,136,38,69
223134525,38,36,29,78,124,38,68
223139663,38,36,29,83,117,37,67
223144715,38,36,28,78,109,36,82
223149831,38,36,29,78,103,35,83
223154944,38,36,28,86,99,35,86
223160056,38,36,29,88,98,35,83
223165169,38,36,29,85,100,36,81
223170284,38,37,29,85,94,35,78
223175396,38,36,29,86,107,36,77
223180510,39,36,28,95,118,36,75
223185625,38,36,29,110,122,35,74
223190766,38,36,28,105,136,37,73
223195904,38,36,29,101,141,37,74
223201044,38,36,29,96,128,36,73
223206159,38,36,29,92,117,35,74
223211275,38,36,29,89,114,36,96
223216387,38,36,29,90,113,36,97
223221503,38,36,29,90,112,35,94
223226536,38,36,28,89,111,35,92
223231675,38,36,29,85,102,34,89
223236814,38,36,29,82,94,34,87
223241954,38,36,28,88,87,33,86
223247094,38,36,29,91,80,33,84
223252234,38,36,29,88,77,32,84
223257375,38,36,29,86,71,32,83
223262518,38,36,29,84,66,32,83
223267662,38,36,29,82,66,32,83
223272806,38,36,29,80,65,32,82
223277948,38,36,29,78,64,32,82
223283092,38,36,29,77,78,33,82
223288236,38,36,29,73,93,35,81
223293380,38,36,29,71,108,36,81
223298524,38,36,29,73,123,35,81
223303541,38,35,29,76,134,37,81
223308599,38,36,29,78,125,36,80
223313658,38,36,28,76,115,35,80
223318717,38,36,29,73,107,35,79
223323775,38,36,29,70,104,36,79
223328834,38,36,29,68,103,36,80
223333893,38,36,28,66,107,38,82
223338951,38,36,29,64,123,41,80
223344010,38,36,28,62,131,42,79
223349069,38,36,29,61,120,41,78
223354128,38,36,29,62,113,40,78
223359186,38,36,28,60,105,39,77
223364245,38,36,28,65,97,38,76
223369304,38,36,28,69,91,37,76
223374363,39,36,29,67,88,37,76
223379422,38,36,29,65,82,36,74
223384181,38,36,29,67,77,35,74
223388816,37,36,29,76,71,35,73
223393489,38,35,28,75,66,34,72
223398169,38,36,28,74,61,34,71
223402838,38,36,28,72,58,33,70
223407527,38,36,28,74,66,35,69
223412208,38,37,29,73,70,34,68
223416885,38,36,28,70,94,35,66
223421589,38,36,28,68,128,39,66
223426288,38,36,28,66,162,41,65
223430957,38,36,28,64,156,41,65
223435627,38,36,29,62,143,40,64
223440296,38,36,29,61,133,39,64
223444979,38,36,29,59,122,38,62
223449649,38,36,29,58,113,37,61
223454318,38,36,29,60,105,37,60
223458863,38,36,28,64,98,37,60
223463614,38,36,29,71,91,36,59
223468375,38,36,29,72,91,36,59
223473125,38,36,28,77,121,39,59
223477876,38,36,29,74,145,40,58
223482626,38,36,29,74,148,41,58
223487391,38,36,28,74,141,40,57
223492141,38,36,29,71,130,39,56
223496897,38,36,29,69,119,38,56
223501647,38,36,29,69,110,37,55
223506397,38,36,29,67,101,36,55
223511148,38,36,29,66,94,36,54
223515898,38,36,29,65,86,35,54
223520649,38,37,28,63,80,35,53
223525400,38,36,29,64,74,35,53
223530152,38,36,29,62,69,35,53
223533994,38,36,28,62,74,34,53
223538743,38,36,29,59,86,36,52
223543495,38,36,28,58,99,36,52
223548245,38,36,29,57,98,37,52
223552994,38,36,29,56,91,36,53
223557744,38,36,27,54,84,35,54
223562496,38,36,28,63,77,34,54
223567246,38,36,29,73,72,34,55
223571995,38,36,29,82,67,34,56
223576747,38,36,28,86,72,33,57
223581499,38,36,28,85,78,34,57
223586249,38,36,28,84,98,37,59
223591000,39,36,29,81,133,39,58
223595751,38,36,29,78,139,41,59
223600503,38,36,29,74,129,40,60
223605236,38,36,29,71,118,39,60
223609987,38,36,28,68,108,38,60
223614739,38,36,28,66,100,37,61
223619490,38,36,29,65,92,36,61
223624241,38,36,28,63,86,36,62
223628993,38,36,29,63,79,35,62
223633744,38,36,29,67,73,35,62
223638496,38,36,29,72,68,34,62
223643248,38,36,29,70,63,34,63
223647999,38,36,28,68,59,33,63
223652751,37,36,28,66,55,33,63
223657503,38,36,28,64,52,33,63
223662254,38,36,29,62,54,33,64
223667006,38,36,29,60,62,33,64
223671763,38,36,28,59,61,32,64
223676514,38,36,29,57,66,32,65
223681264,38,36,29,60,71,32,64
223686015,38,36,29,62,70,31,65
223690765,38,36,28,68,65,31,65
223695516,38,36,28,70,61,31,65
223700266,38,36,29,74,58,31,65
223705017,38,36,29,70,55,31,65
223709768,38,36,29,67,52,31,65
223714519,38,36,29,65,49,31,65
223719269,38,36,28,63,46,30,65
223724020,38,36,28,61,43,30,65
223728771,38,36,28,60,41,31,65
223733527,38,36,28,58,39,31,66
223738278,38,36,29,57,41,31,66
223743029,38,36,29,56,42,31,65
223747780,38,36,29,56,40,30,66
223752531,38,36,28,54,38,30,66
223757271,38,36,29,60,36,30,66
223762022,38,37,29,71,35,30,66
223766773,38,36,29,68,33,30,66
223771524,38,36,29,66,32,30,66
223776275,38,36,29,65,31,30,66
223781026,38,36,29,62,30,30,65
223785777,38,36,29,61,29,30,65
223790528,38,36,29,59,36,30,65
223795279,38,36,29,58,40,31,65
223800030,38,36,28,57,38,30,65
223804781,38,36,29,57,39,30,65
223809532,38,36,28,56,41,30,65
223814283,38,36,29,56,39,30,65
223819034,38,36,29,56,37,30,65
223823785,38,36,29,56,36,30,65
223828536,38,36,28,54,34,30,66
223833287,38,36,29,54,33,31,66
223838037,38,36,29,53,32,30,67
223842787,38,36,28,52,30,30,67
223847538,38,35,29,53,29,30,67
223852290,38,36,29,54,29,30,67
223857039,38,36,29,54,28,30,67
223861790,38,37,29,59,26,31,67
223866542,38,36,29,68,27,30,67
223876961,38,36,29,67,26,30,68
223881622,38,36,28,67,25,30,67
223886308,38,36,29,65,24,30,67
223890994,38,36,28,63,24,30,67
223895681,38,35,29,62,24,30,65
223900369,38,36,29,60,24,30,69
223905056,38,36,29,59,23,30,69
223909744,38,36,29,57,23,30,69
223914365,38,36,28,56,23,30,69
223919019,38,36,29,55,23,30,69
223923674,38,36,29,54,22,30,69
223928328,38,36,28,53,22,30,68
223932983,38,36,28,53,22,30,68
223937637,38,36,29,52,22,30,68
223942292,38,36,28,52,22,30,69
223946946,38,36,28,51,22,30,68
223951601,38,36,29,50,22,30,68
223956256,38,36,29,50,22,30,68
223960911,38,36,30,49,21,30,68
223965566,38,36,28,50,21,30,68
223970221,38,36,29,50,21,30,68
223974877,38,36,28,50,21,30,67
223979532,38,36,29,50,22,30,67
223984187,38,36,28,50,21,30,68
223989139,38,36,29,50,21,30,67
223993893,38,36,29,50,21,30,67
223998657,38,36,28,50,21,30,67
224003421,38,36,28,50,21,30,67
224008185,38,36,29,50,20,30,67
224012953,38,36,29,50,21,30,66
224017724,38,36,29,50,21,30,66
224022488,38,36,28,50,21,30,66
224027253,38,36,29,51,21,30,66
224032018,38,37,29,50,21,30,66
224036782,38,36,29,55,22,30,66
224041547,38,36,29,54,21,30,67
224046313,38,36,29,54,21,30,66
224051078,38,36,29,55,21,30,66
224055843,38,36,29,54,21,30,66
224060609,38,36,29,53,21,30,70
224065356,38,37,29,53,21,30,73
224070201,38,38,29,55,21,31,72
224075045,38,37,28,55,21,31,72
224079892,38,37,29,55,21,31,71
224084738,38,38,29,56,21,31,71
224089583,38,37,29,56,21,31,70
224094429,37,37,28,55,21,31,70
224099277,38,37,29,54,21,31,70
224104123,38,37,28,54,21,30,69
224108968,38,37,29,53,21,31,69
224113816,38,37,29,53,21,31,68
224118663,38,37,29,52,21,30,69
224123509,38,37,29,52,21,30,68
224128356,38,37,28,51,21,30,68
224133204,38,36,29,52,21,30,68
224138051,37,36,29,51,21,30,68
224142896,38,37,29,51,20,30,67
224147743,38,36,28,50,21,30,67
224152590,38,36,28,51,21,30,67
224157436,38,36,29,51,21,30,68
224162283,38,36,29,50,21,30,67
224167129,38,36,29,50,21,30,67
224171976,38,37,29,49,20,31,67
224176824,38,36,29,49,21,30,66
224181671,38,36,28,49,21,30,67
224186519,38,36,28,48,20,30,66
224191366,38,36,28,48,21,30,67
224196213,38,36,28,48,21,30,67
224201060,38,37,29,48,21,30,66
224205908,38,36,28,47,21,30,66
224210755,38,36,29,47,21,30,66
224215602,38,36,28,47,21,30,66
224220430,38,36,28,46,21,30,67
224225278,39,36,27,47,21,30,68
224230125,38,36,28,47,21,30,75
224234991,38,36,28,46,21,30,76
224239840,38,36,28,46,21,30,74
224244687,372,146,28,373,21,281,77
224249534,424,161,28,419,21,320,81
224254381,425,163,28,424,21,325,80
224259241,405,156,28,411,21,312,79
224264105,374,145,29,387,21,292,78
224268952,341,134,28,360,21,270,77
224273800,310,124,28,335,21,248,76
224278647,282,115,28,312,21,227,76
224283494,257,107,28,290,21,208,75
224288341,234,99,28,274,21,189,75
224293123,214,93,28,265,21,173,79
224297970,196,87,29,258,21,159,82
224302816,180,82,28,242,21,146,83
224307662,166,77,28,225,21,134,85
224312508,152,73,28,207,21,124,84
224317354,141,69,28,190,21,114,83
224322200,130,66,28,176,21,105,83
224327046,121,63,29,163,21,97,82
224331893,112,60,28,151,21,90,81
224336739,105,58,28,140,21,84,80
224341585,98,55,28,132,21,79,79
224346432,92,53,29,124,21,74,96
224351278,86,52,28,123,20,69,114
224356124,81,50,28,125,21,65,113
224360971,76,49,28,118,21,62,112
224365736,74,48,28,110,21,58,116
224370583,69,46,28,105,21,56,118
224375431,66,45,28,102,21,53,119
224380277,63,44,28,99,21,51,121
224385124,60,43,28,94,21,49,124
224389972,58,43,29,93,21,47,126
224394820,56,42,29,90,21,46,128
224399666,54,41,28,87,21,44,129
224404513,53,41,28,90,21,42,132
224409362,51,40,29,92,21,42,134
224414210,50,40,29,90,21,40,133
224419057,48,40,28,88,21,40,138
224423905,47,39,28,84,20,39,144
224428755,47,39,29,80,21,37,146
224433603,46,39,29,77,21,36,148
224438450,45,38,28,74,20,36,150
224443298,44,38,28,74,21,35,149
224448146,43,38,30,74,21,34,150
224452992,43,38,29,72,21,34,150
224457839,42,37,29,79,21,33,152
224462687,42,37,28,86,21,33,152
224467536,42,37,28,85,20,32,152
224472383,41,37,29,85,21,32,151
224477232,41,37,29,86,21,32,151
224482080,41,37,29,83,21,32,152
224486928,40,37,28,81,21,31,158
224491777,40,37,28,80,21,31,157
224496628,40,37,28,77,21,31,170
224501479,40,37,29,76,21,31,180
224506331,39,37,29,75,21,30,188
224511181,39,37,28,74,21,30,196
224515831,39,36,28,73,21,30,203
224520600,39,36,29,71,21,31,212
224525368,39,36,28,70,21,32,222
224530137,39,36,28,72,21,31,232
224534906,38,36,28,70,21,31,228
224539675,39,36,29,70,21,31,240
224544444,38,36,29,67,21,31,239
224549213,38,36,28,65,20,31,251
224553982,38,36,28,66,21,30,243
224558751,39,36,28,70,21,30,256
224563520,38,36,28,72,21,30,260
224568289,38,36,28,74,21,30,256
224573058,38,36,28,73,21,31,265
224577826,38,36,28,72,21,30,269
224582595,38,36,29,72,21,30,271
224587689,38,36,28,77,21,30,273
224592570,38,36,29,76,21,30,268
224597476,38,36,28,76,21,30,268
224602357,38,36,29,78,21,30,272
224607238,38,36,29,82,21,30,276
224612119,38,36,28,84,21,30,277
224617000,38,36,28,86,21,30,279
224621880,38,36,29,88,21,30,281
224626761,38,36,29,85,20,30,283
224631647,38,36,28,84,21,31,279
224636538,38,36,29,81,20,30,279
224641418,38,36,28,78,21,31,279
224646299,38,36,29,75,21,31,278
224651181,38,36,28,72,21,30,276
224656067,38,36,28,71,21,30,284
224660948,38,36,29,71,21,30,290
224665769,38,36,29,70,21,30,294
224670730,38,36,28,70,21,30,297
224675716,38,36,28,70,21,30,298
224680695,38,36,28,70,21,30,300
224685667,38,36,28,71,21,30,302
224690678,38,36,29,71,21,30,305
224695655,38,36,29,69,21,31,304
224700617,38,36,28,67,21,30,294
224705578,38,36,28,67,21,30,301
224710551,38,36,28,69,21,30,301
224715622,38,36,28,69,21,30,305
224720584,38,36,29,68,21,30,307
224725545,38,36,29,67,21,30,308
224730507,38,36,28,65,21,30,309
224735468,39,37,29,62,21,30,309
224740430,38,36,29,61,21,30,308
224744511,38,36,28,60,21,30,308
224749473,38,36,28,61,21,30,302
224754439,38,36,29,60,21,30,299
224759402,38,35,29,60,21,30,304
224764369,38,36,28,62,21,30,304
224769330,38,36,28,64,21,30,300
224774291,38,36,28,63,21,31,298
224779256,38,36,29,67,21,30,294
224784218,38,36,30,69,21,30,298
224789178,38,36,29,67,21,30,296
224794142,38,36,28,66,21,30,295
224799105,38,36,29,64,21,30,292
224804068,38,36,28,64,21,31,291
224809030,38,36,29,63,21,30,290
224813995,38,36,29,62,21,29,287
224818900,38,36,29,61,21,30,286
224823861,38,36,28,62,21,30,284
224828823,38,37,28,63,21,30,281
224833787,38,36,28,60,21,30,279
224838751,38,36,29,60,21,30,276
224843713,38,36,28,58,21,30,270
224848677,38,36,29,58,21,30,267
224853641,38,36,29,57,21,30,267
224858604,38,36,29,60,21,30,266
224863568,38,36,29,62,20,30,257
224868532,38,36,29,65,21,29,259
224873495,38,36,28,64,21,30,257
224878459,38,36,28,62,20,30,256
224883423,38,35,29,62,20,29,253
224888386,38,36,28,61,21,29,251
224893350,38,35,29,63,21,30,244
224898262,38,36,29,62,21,30,236
224903251,38,36,29,65,21,30,239
224908240,38,36,28,65,21,30,235
224913228,38,36,28,63,21,30,234
224918218,38,36,28,62,21,30,232
224923214,38,36,28,60,20,30,228
224928203,38,36,28,58,21,30,225
224933192,38,36,29,57,21,29,221
224938181,38,36,28,56,21,30,218
224943170,38,36,28,55,21,30,214
224948159,38,36,28,54,20,30,209
224953148,39,37,28,53,20,30,206
224958112,38,36,29,53,20,30,202
224963101,38,36,29,52,21,30,198
224968091,38,36,29,52,21,29,194
224972995,38,36,29,52,21,30,191
224977958,38,36,28,52,21,30,187
224982921,38,36,28,52,21,29,184
224987884,38,36,29,51,21,30,181
224992847,38,36,29,51,21,29,176
224997813,38,36,29,53,21,30,172
225002781,38,36,28,58,21,30,168
225007743,38,36,29,58,21,30,164
225012706,38,36,29,57,21,30,159
225017669,38,36,29,57,21,29,155
225022632,38,36,28,56,21,30,150
225027595,38,36,29,56,21,30,145
225032558,38,36,29,56,21,30,139
225037522,38,36,29,55,21,30,134
225042485,38,36,28,54,21,30,129
225047448,38,36,29,54,20,30,123
225052329,38,36,29,54,21,30,118
225057317,38,36,29,52,21,30,112
225062305,38,36,29,57,21,30,108
225067294,38,36,29,58,20,30,105
225072282,38,36,29,68,21,29,102
225077271,38,36,29,67,20,30,100
225082260,38,36,28,64,20,30,97
225087249,38,36,28,63,20,30,95
225092237,38,36,29,61,21,30,93
225097227,38,36,29,60,21,29,91
225102217,38,36,28,59,21,30,89
225107205,38,36,28,60,21,30,88
225112194,38,36,29,60,21,30,86
225117185,38,36,28,59,21,30,85
225127845,38,36,28,58,21,29,81
225132628,38,36,28,62,21,30,81
225137473,38,36,29,60,20,30,79
225142319,39,36,29,59,21,30,78
225147165,38,36,28,58,20,30,78
225152012,38,36,28,56,21,29,78
225156859,38,36,28,57,21,30,78
225161706,38,36,28,60,21,29,79
225166581,38,36,28,58,20,30,80
225171472,38,36,29,58,21,30,81
225176363,38,36,28,60,20,30,82
225181254,38,36,28,58,20,29,83
225186144,38,36,28,58,20,29,84
225191035,38,36,29,57,21,30,85
225195926,38,36,29,56,21,30,86
225200816,38,36,29,56,21,30,89
225205707,38,36,28,56,20,30,90
225214099,37,36,28,57,20,29,93
225218798,38,36,29,57,21,29,96
225223424,38,35,28,56,21,29,97
225228084,38,36,28,55,21,29,99
225232744,38,36,29,55,21,30,101
225237403,38,36,28,55,21,30,103
225242063,38,36,29,54,21,30,104
225246723,38,36,28,53,20,30,106
225251382,38,36,29,53,21,29,108
225256060,38,36,29,52,21,29,109
225260719,38,36,29,52,21,30,110
225265379,38,36,28,53,21,30,111
225270038,37,36,28,52,21,29,112
225274698,38,36,29,52,21,29,112
225279358,38,36,28,52,21,29,114
225284018,38,36,29,60,22,30,115
225288598,37,36,29,78,21,29,116
225293338,38,36,28,80,21,29,117
225298079,38,36,29,77,21,30,118
225302819,38,36,29,74,21,30,119
225307559,38,36,29,71,21,30,120
225312299,38,36,29,69,21,29,121
225317041,38,36,28,67,21,30,121
225321781,38,36,29,64,21,30,122
225326521,38,36,29,62,21,30,123
225331263,38,36,29,62,21,30,123
225336005,39,36,29,62,20,30,124
225340746,38,36,29,60,21,30,124
225345486,38,36,28,58,21,30,124
225350229,38,36,28,57,21,30,124
225354971,38,36,28,57,20,30,125
225359711,38,36,29,56,21,30,125
225363547,38,36,29,55,21,29,125
225368288,38,36,28,56,20,30,124
225373030,38,35,28,54,21,30,125
225377769,38,36,29,54,21,29,125
225382510,39,36,29,54,21,30,125
225387252,38,36,29,54,21,30,124
225391993,38,36,29,55,21,30,124
225396734,38,36,28,56,21,29,123
225401475,38,36,29,56,21,29,123
225406217,38,37,28,56,21,30,123
225410958,38,37,29,55,20,30,121
225415700,38,36,28,54,20,30,121
225420442,38,36,29,55,21,30,121
225425184,38,36,29,56,21,30,121
225429926,38,36,28,55,21,29,120
225434588,38,36,29,56,20,30,120
225439346,38,36,28,56,21,30,118
225444089,39,36,29,55,20,30,118
225448831,38,36,28,58,21,30,117
225453574,38,36,29,59,20,29,116
225458316,38,36,28,57,21,30,115
225463058,38,36,28,56,21,29,115
225467801,38,36,29,56,21,30,114
225472543,38,36,29,55,21,30,113
225477286,38,36,28,55,21,30,112
225482028,38,36,29,58,21,30,112
225486771,38,36,29,57,21,30,111
225491532,38,36,27,61,21,30,111
225496275,38,36,29,60,21,30,109
225501017,38,36,28,59,21,30,110
225505759,37,36,29,58,21,30,109
225510397,38,36,28,59,21,29,109
225515143,38,36,29,57,21,30,108
225519885,38,36,28,57,21,29,108
225524627,38,36,29,57,21,29,107
225529368,38,36,28,57,21,29,107
225534109,38,36,29,56,20,29,106
225538851,38,36,28,56,21,29,106
225543593,38,36,29,55,21,30,105
225548334,38,36,28,54,21,30,105
225553076,37,37,28,58,21,29,105
225557818,38,36,29,60,20,30,104
225562559,38,35,29,60,21,29,103
225567301,38,36,29,64,20,30,103
225572042,38,36,29,63,20,29,102
225576784,38,36,28,62,21,30,101
225581445,38,36,28,61,21,29,100
225586186,38,36,29,59,21,30,99
225590941,38,36,29,58,21,30,98
225595682,38,36,29,57,21,30,97
225600440,38,36,28,58,21,29,96
225605182,38,36,28,57,21,29,95
225609924,38,36,28,56,21,30,94
225614665,38,36,29,55,20,30,93
225619408,38,36,28,56,21,29,92
225624150,38,36,29,59,21,30,91
225628892,38,36,29,58,21,29,91
225633634,38,36,29,58,21,29,89
225638378,38,36,29,57,20,29,88
225643119,38,36,28,56,20,29,88
225647861,38,36,29,63,21,30,86
225652604,38,36,28,67,21,29,86
225657285,38,36,29,70,21,29,84
225662026,38,36,28,67,20,29,84
225666767,38,36,29,65,21,29,82
225671511,38,36,29,64,20,29,82
225676254,38,36,29,62,21,29,81
225680995,38,36,29,60,21,29,80
225685737,38,36,29,59,20,29,79
225690480,38,36,28,58,21,29,78
225695224,37,36,29,57,21,30,77
225699965,38,36,29,56,20,29,77
225704723,38,36,29,55,20,28,76
225709466,38,36,29,54,20,29,76
225714210,38,36,29,53,21,29,74
225718952,38,36,28,56,20,29,75
225723695,38,37,29,60,21,29,74
225728439,38,37,29,58,21,29,73
225733021,38,36,29,57,21,29,73
225737683,38,36,28,56,21,29,72
225742347,38,36,28,56,21,30,71
225747011,38,36,29,55,21,30,71
225751675,38,36,29,55,20,30,70
225756338,38,36,28,54,21,29,70
225761002,38,36,29,61,20,29,69
225765667,38,36,28,72,21,29,69
225770331,38,36,29,69,21,30,68
225774995,38,36,29,67,21,30,68
225779660,38,36,28,65,21,29,68
225784324,38,36,29,63,21,29,67
225788989,38,36,29,62,21,29,66
225793653,38,36,29,61,21,29,65
225798317,37,36,28,60,21,29,65
225802982,38,36,29,59,21,30,64
225807880,38,36,29,58,21,29,64
225812642,38,36,29,57,21,29,63
225817415,38,36,29,56,21,29,63
225822188,38,36,29,55,21,30,62
225826961,38,36,29,54,21,30,62
225831734,38,36,29,54,21,29,61
225836507,38,36,29,53,21,30,61
225841281,38,36,28,52,21,30,60
225846053,38,36,29,52,21,30,60
225850827,38,36,28,52,21,30,60
225855600,38,36,28,51,21,30,59
225860373,38,36,29,51,21,30,59
225865146,38,36,28,50,21,30,58
225869918,38,36,28,50,21,30,58
225874705,38,36,29,51,21,29,58
225879516,39,36,29,54,21,30,59
225884207,38,36,28,58,20,29,58
225889061,38,36,29,57,21,29,58
225893915,38,36,29,56,21,30,58
225898776,38,36,28,55,20,28,58
225903630,38,36,28,54,21,29,57
225908490,37,35,29,53,21,29,57
225913375,38,36,29,53,21,30,57
225918237,38,36,29,52,21,29,57
225923136,38,36,29,53,21,29,57
225927990,37,36,28,53,21,29,57
225932877,38,36,29,52,21,30,57
225937747,38,36,29,52,20,30,57
225942618,38,36,29,51,21,29,57
225947490,38,36,29,50,21,29,57
225952377,38,36,28,50,21,30,56
225957231,38,36,29,49,21,30,56
225962039,38,36,28,49,20,30,56
225966892,37,36,28,49,21,30,56
225971750,38,36,29,48,20,29,56
225976608,38,36,29,49,21,30,56
225981463,38,36,29,51,21,30,56
225986315,38,36,28,51,21,29,56
225991175,38,36,29,50,21,29,56
225996028,39,36,29,50,21,29,55
226000883,38,36,29,51,21,30,55
226005737,38,36,28,51,21,29,55
226010590,38,36,28,53,21,29,55
226015444,38,36,29,52,21,29,54
226020300,38,36,29,50,21,29,54
226025153,38,36,28,50,21,29,54
226030006,38,36,29,51,21,29,54
226034862,38,36,28,52,21,29,54
226039636,38,36,28,56,20,29,54
226044489,38,36,29,59,21,30,53
226049343,38,36,29,58,21,29,54
226054198,38,36,29,58,21,30,54
226059053,38,36,29,57,21,29,53
226063906,38,36,29,56,21,29,53
226068762,38,36,28,55,21,29,53
226073617,38,36,28,54,20,29,53
226078472,38,36,28,53,21,30,53
226083326,38,36,29,52,20,29,53
226088181,38,37,28,52,20,29,53
226093037,38,36,28,51,20,30,53
226097892,38,36,29,50,21,30,53
226102748,38,36,29,50,21,30,53
226107603,38,36,29,50,20,30,53
226112459,38,36,29,49,21,30,54
226117252,38,36,29,49,21,29,53
226122107,38,36,29,48,21,30,53
226126962,37,36,28,48,21,30,53
226131817,38,36,28,48,21,29,53
226136672,38,36,29,49,21,29,53
226141527,38,36,29,58,21,29,52
226146382,38,36,28,66,21,30,52
226151236,38,36,29,65,20,30,52
226156096,38,36,28,63,21,30,51
226160951,38,36,29,61,21,30,51
226165806,37,36,29,59,21,30,51
226170660,38,36,29,58,20,29,51
226175515,38,36,28,57,21,30,50
226180418,38,36,29,57,21,30,50
226185273,38,36,29,57,21,29,50
226190176,38,36,28,56,21,30,50
226194950,38,36,29,56,21,30,50
226199805,38,36,29,55,21,30,50
226204660,38,36,28,54,20,29,49
226209515,38,36,29,53,20,29,50
226214370,38,36,28,53,21,30,50
226219226,38,36,29,54,21,29,50
226224081,38,36,28,53,21,29,51
226228936,38,36,28,52,21,29,50
226233791,38,36,29,53,21,29,49
226238646,38,36,29,54,20,30,49
226243501,37,36,29,59,21,29,49
226248356,38,36,29,59,21,29,49
226253211,38,36,29,58,21,30,49
226258065,38,36,28,59,21,29,48
226262920,38,36,28,58,21,29,48
226267783,38,36,28,57,21,29,48
226272574,37,36,28,57,21,29,47
226277428,38,37,28,58,21,30,47
226282282,38,36,28,58,21,30,47
226287136,38,36,29,59,21,29,47
226291990,38,36,28,59,21,30,46
226296844,38,36,28,58,21,30,46
226301698,38,36,28,58,21,29,46
226306552,38,37,29,57,21,29,46
226311407,38,36,28,58,21,29,46
226316260,38,36,28,57,21,29,45
226321114,38,36,29,56,21,29,45
226325968,38,36,28,56,21,29,47
226330824,38,36,28,55,22,29,48
226335678,38,36,29,58,21,29,50
226340532,38,36,28,57,21,29,51
226345388,38,37,28,62,21,29,52
226355802,38,36,28,71,21,30,54
226360481,38,36,29,68,21,30,55
226365196,38,36,28,66,21,29,57
226369912,38,36,28,64,21,30,57
226374628,38,36,28,62,21,29,57
226379346,38,36,29,60,21,29,58
226384063,38,36,28,59,21,30,58
226388780,38,36,29,62,21,29,59
226393504,39,36,28,65,21,29,60
226398265,38,36,29,64,20,30,60
226403026,38,36,29,62,21,29,60
226407787,39,36,28,62,20,29,61
226412548,38,36,29,61,20,29,61
226417309,38,36,28,60,21,29,61
226422070,38,36,29,61,21,29,62
226426831,38,36,29,61,21,30,62
226431852,38,36,29,59,21,30,62
226436765,38,36,28,58,20,30,63
226441677,38,36,29,57,21,30,63
226446590,38,36,29,56,21,30,63
226451502,38,36,28,56,21,30,63
226456415,38,36,28,55,21,30,63
226461327,38,35,29,56,21,29,64
226466240,38,36,29,55,21,29,64
226471152,38,36,28,58,21,29,64
226476065,38,36,29,59,21,30,64
226480977,38,36,29,61,20,30,64
226485914,38,36,28,63,20,30,64
226490843,38,36,29,62,21,30,64
226495755,38,37,29,61,21,29,64
226500668,38,36,29,60,20,30,65
226505581,38,37,29,58,21,30,64
226510395,38,36,29,57,21,30,64
226515389,38,36,29,56,21,29,65
226520382,38,36,28,56,21,29,65
226525376,38,36,28,54,21,30,65
226530371,38,36,28,55,21,30,65
226535364,38,36,29,54,21,29,65
226540358,38,35,28,53,21,30,65
226545352,38,36,29,53,20,30,65
226550348,38,35,29,53,21,29,65
226555342,38,36,29,55,20,30,65
226560336,38,36,29,54,21,30,65
226565331,37,36,28,53,21,30,65
226570327,38,36,28,54,21,30,65
226575320,38,36,28,55,21,30,65
226580314,38,36,29,57,21,29,65
226585311,38,36,28,56,20,30,65
226590227,38,36,29,56,20,30,65
226595219,38,36,28,55,20,30,65
226600213,38,36,28,54,20,30,65
226605208,38,36,28,53,21,30,65
226610204,38,36,28,53,21,30,65
226615197,38,37,29,52,21,29,65
226620192,38,37,29,51,21,30,65
226625187,38,36,29,50,21,30,65
226630182,38,36,29,50,21,30,65
226635176,38,36,29,49,21,30,65
226640171,38,36,29,49,21,30,65
226645167,38,36,29,48,21,30,65
226650162,38,36,29,48,21,30,66
226655158,39,36,29,47,21,30,65
226660153,38,36,29,48,21,30,65
226665148,38,36,28,48,20,30,66
226670046,38,36,28,47,21,30,65
226675042,38,36,28,47,21,29,65
226680038,38,36,29,47,20,30,65
226685034,38,36,29,47,21,30,65
226690030,38,36,29,47,21,30,65
226695026,38,36,29,47,21,30,65
226700022,38,36,29,47,21,30,65
226705018,38,36,29,47,21,30,65
226710014,38,36,28,47,21,30,66
226715010,38,36,28,46,21,30,65
226720006,38,36,29,46,21,30,65
226725002,38,36,29,47,21,30,65
226729998,38,36,28,47,20,30,65
226734994,38,36,28,46,21,30,65
226739990,38,37,29,46,20,30,66
226744986,38,36,29,46,20,30,65
226749909,38,36,29,46,21,30,66
226754904,39,36,28,46,21,30,66
226759899,38,36,29,46,21,30,66
226764895,38,36,29,46,21,30,66
226769890,38,36,28,46,21,30,66
226774886,38,36,29,46,21,30,66
226779881,38,37,29,46,21,30,66
226784877,38,36,29,46,21,30,66
226789872,38,36,28,46,21,30,66
226794868,38,36,29,47,21,30,66
226799863,38,36,29,48,21,30,67
226804859,38,36,29,51,21,30,66
226809855,38,36,29,52,21,30,65
226814850,38,36,29,52,24,29,65
226819845,38,36,29,51,24,30,64
226824841,38,36,28,51,24,30,64
226829738,38,36,28,50,23,30,64
226834734,38,36,29,50,23,30,63
226839730,38,36,28,50,25,30,63
226844725,38,36,28,50,24,29,63
226849721,44,36,29,52,24,30,62
226854716,47,36,28,52,24,29,62
226859712,46,36,29,51,23,30,62
226864707,45,36,29,51,24,29,62
226869704,45,36,28,51,25,30,62
226874705,44,36,28,50,27,30,61
226879701,44,36,28,52,26,29,61
226884696,43,36,28,51,25,30,60
226889695,43,37,29,51,25,30,59
226894690,42,36,29,50,24,30,58
226899686,42,36,29,50,24,30,57
226904683,42,36,29,51,24,30,56
226909601,41,36,29,51,23,30,55
226914596,41,36,29,51,23,30,54
226919590,40,36,28,50,23,30,53
226924588,48,36,29,50,24,30,52
226929585,60,37,29,50,25,30,53
226934580,77,37,29,49,25,30,54
226939576,74,37,29,49,25,30,55
226944573,70,37,29,48,25,31,56
226949570,66,37,29,48,24,30,57
226954565,64,37,29,48,24,31,57
226959562,61,37,29,48,24,31,58
226964560,58,36,29,47,24,30,58
226969557,56,36,29,47,24,31,59
226974553,54,37,29,48,24,30,59
226979551,52,36,29,47,24,30,60
226984548,51,36,29,47,23,30,60
226989366,49,36,29,47,23,30,61
226994282,48,37,29,47,23,30,61
226999201,47,36,29,47,23,30,61
227004120,46,36,29,47,22,30,62
227009039,46,36,29,47,22,30,62
227013957,44,36,29,47,22,30,62
227018875,44,36,29,47,22,29,63
227023794,44,36,29,46,22,30,63
227028713,43,36,29,46,22,30,63
227033631,42,36,28,46,22,30,64
227038550,42,36,29,46,23,30,64
227043469,42,37,29,46,24,30,64
227048388,48,37,29,46,24,30,64
227053306,53,36,29,46,24,29,64
227058225,52,36,29,46,24,30,64
227063144,60,36,29,46,24,30,65
227068283,65,37,28,46,25,30,65
227073249,63,37,29,46,25,30,65
227078206,61,38,29,46,37,30,64
227083163,58,38,29,46,42,30,65
227088120,56,39,28,46,48,30,65
227093077,54,39,28,46,54,30,65
227098034,53,41,29,46,57,30,65
227102992,51,40,29,46,53,30,64
227107949,50,40,28,46,50,30,65
227112906,48,40,29,46,47,30,65
227117863,47,40,29,46,49,30,66
227122820,46,40,28,46,50,30,65
227127833,45,39,29,46,54,30,76
227132795,46,39,29,46,53,30,85
227137752,44,39,28,47,61,30,84
227142732,43,39,28,46,59,31,82
227147659,43,39,28,49,56,30,81
227152708,42,39,29,48,53,30,79
227157760,42,38,28,48,50,30,78
227162800,41,38,29,48,47,30,77
227167840,41,45,29,48,45,30,76
227172929,41,50,28,47,42,29,76
227177969,41,49,29,47,40,30,75
227183034,40,48,28,47,39,30,74
227188080,40,47,28,47,37,30,73
227193120,40,46,28,47,36,30,73
227198161,40,46,28,46,34,30,72
227203204,40,45,29,47,33,30,72
227208244,40,45,28,47,32,31,71
227213284,40,44,29,48,31,30,71
227218324,41,46,29,49,29,30,70
227223364,41,45,28,49,29,30,70
227228365,40,49,28,48,28,30,70
227233461,40,53,29,48,27,30,69
227238541,41,62,29,48,27,30,69
227243621,40,69,29,48,26,30,69
227248702,40,80,28,48,26,30,68
227253782,39,77,28,48,25,30,68
227258861,40,76,28,49,25,30,68
227263941,40,75,29,49,24,30,68
227269024,40,74,29,49,24,30,67
227274103,45,86,28,50,24,30,66
227279183,45,88,29,50,24,30,66
227284265,46,91,28,50,33,30,64
227289347,48,95,29,49,35,30,64
227294426,50,90,29,49,40,30,65
227299506,49,85,29,49,44,30,65
227304589,50,82,29,49,51,30,65
227309579,49,98,29,48,52,30,65
227314622,49,99,28,48,59,30,65
227319663,48,115,29,48,83,31,65
227324705,56,147,29,48,111,31,65
227329787,56,192,29,52,125,32,64
227334867,62,188,28,56,135,32,65
227339950,62,173,29,56,127,32,65
227345033,60,176,29,55,126,31,65
227350115,58,168,29,54,142,32,65
227355196,56,163,29,53,150,32,65
227360279,54,148,29,53,137,31,65
227365362,53,137,29,52,127,31,65
227370444,51,126,28,51,120,31,65
227375527,49,116,29,51,112,32,65
227380610,57,116,28,50,115,31,65
227385652,60,120,28,50,116,31,65
227390733,58,133,28,50,135,31,66
227395815,56,140,29,51,143,32,65
227400896,61,135,29,51,145,32,65
227405978,59,125,28,51,147,34,66
227411059,56,115,29,52,136,33,66
227416140,54,107,29,54,129,33,66
227421222,53,100,28,58,118,33,67
227426304,51,95,28,73,116,33,66
227431385,50,95,28,73,109,32,66
227436466,49,97,28,72,102,32,66
227441547,48,96,28,77,100,32,66
227446628,46,90,28,75,94,32,66
227451710,46,87,29,72,91,32,66
227456792,45,84,28,70,87,32,66
227461874,45,92,28,67,81,32,66
227466815,44,99,28,65,77,32,66
227471897,43,98,28,63,77,31,66
227476980,42,91,29,61,73,31,66
227482061,42,85,29,67,90,32,66
227487144,42,80,28,72,90,34,66
227492226,41,76,28,70,85,33,66
227497308,41,73,28,67,83,33,66
227502408,40,70,28,66,83,33,66
227507490,40,68,29,65,83,32,66
227512531,40,65,28,62,77,32,66
227517613,40,61,28,65,76,32,66
227522695,40,58,28,69,80,32,66
227527737,40,56,28,68,81,33,66
227532819,39,55,29,66,85,33,65
227537861,39,52,28,68,83,33,66
227542903,40,51,28,67,79,32,66
227547862,39,49,28,65,75,32,66
227552943,38,48,27,68,71,31,66
227558023,39,46,28,69,70,31,66
227563104,38,45,28,66,68,31,66
227568184,39,44,28,64,76,31,66
227573265,38,44,28,65,82,31,66
227578346,38,43,29,67,79,31,66
227583426,38,42,28,65,76,31,66
227588507,38,41,29,63,74,31,66
227593588,38,41,28,61,76,31,66
227598669,38,40,28,61,75,31,66
227603749,38,40,28,66,74,31,65
227608830,38,40,28,68,76,31,65
227613913,38,39,28,69,73,31,65
227618993,38,39,28,66,74,32,65
227624074,39,38,28,65,76,31,64
227628932,38,38,28,70,71,31,65
227639651,38,38,28,72,62,31,65
227644550,38,38,28,70,59,30,65
227649487,38,37,28,69,56,30,65
227654424,38,37,28,79,56,30,65
227659361,38,37,29,81,53,31,65
227664300,38,37,28,81,50,30,65
227669238,38,37,28,80,50,30,65
227674176,38,37,28,77,56,30,65
227679121,38,37,28,74,55,31,65
227684103,38,39,28,74,65,30,65
227689085,38,45,28,72,62,30,65
227694067,38,45,28,70,58,30,65
227699050,38,44,28,69,59,30,65
227704031,38,43,28,68,60,30,65
227709014,38,42,28,76,68,31,65
227714174,38,42,29,77,69,31,65
227719207,38,41,28,74,78,31,65
227724239,38,41,29,76,72,30,65
227729270,38,40,29,74,67,30,64
227734302,38,40,29,72,62,29,65
227739334,38,40,28,69,58,30,65
227744365,38,39,29,67,54,30,65
227749397,38,39,29,66,53,30,65
227754428,38,38,28,66,52,30,65
227759460,38,38,29,67,58,30,65
227764492,38,38,29,67,62,31,65
227769523,38,38,29,65,62,30,65
227774577,38,37,29,63,61,30,65
227779624,38,38,28,61,62,31,65
227784696,38,37,29,59,61,31,65
227789728,38,37,29,59,63,31,65
227794656,38,37,29,58,59,30,65
227799770,38,37,28,58,55,30,65
227804885,38,37,28,68,51,30,65
227809999,38,37,29,66,48,30,65
227815114,38,37,29,65,45,29,65
227820229,38,37,29,63,42,30,65
227825344,38,37,29,62,48,30,65
227830458,38,36,29,62,50,30,65
227835572,38,36,28,60,50,30,65
227840689,38,37,29,59,49,30,65
227845803,38,36,29,57,48,31,65
227850918,38,35,29,56,53,30,64
227856034,38,36,29,55,55,30,65
227861151,38,36,28,58,58,30,64
227866265,38,37,29,58,55,30,64
227871380,38,36,29,58,55,30,65
227876413,38,36,29,57,66,31,65
227881529,38,36,29,57,80,33,65
227886643,38,36,29,56,102,33,65
227891758,38,36,29,55,108,33,72
227896874,38,36,28,62,100,33,73
227901990,38,36,29,64,92,32,72
227907104,38,36,29,69,84,32,73
227912221,38,36,28,66,78,31,74
227917337,38,36,28,65,73,32,74
227922453,38,36,29,64,67,31,75
227927568,38,36,29,62,63,31,75
227932685,38,36,28,64,59,31,74
227937802,38,36,29,64,63,31,74
227942918,38,36,28,64,62,31,73
227948035,38,36,28,64,64,31,72
227953151,38,36,28,64,66,31,72
227957377,38,36,28,63,62,31,74
227962494,38,36,28,61,95,34,74
227967611,38,36,29,62,121,35,75
227972791,38,36,28,61,115,34,78
227977908,38,36,28,64,105,34,80
227983026,39,36,28,76,97,33,87
227988143,38,36,28,83,88,33,91
227993265,38,36,28,84,81,32,96
227998383,38,36,28,79,75,32,100
228003500,38,36,28,76,69,32,102
228008617,38,36,27,75,64,32,110
228013734,38,37,28,74,59,31,110
228018851,38,37,28,76,55,32,118
228023989,38,37,28,76,52,32,126
228029111,39,37,28,72,48,31,129
228034226,38,37,28,70,45,31,133
228039343,38,37,28,71,42,31,131
228044460,38,36,28,68,40,30,132
228049584,38,36,28,67,39,31,139
228054701,39,37,28,68,38,30,142
228059817,38,37,28,71,36,30,146
228064934,38,36,28,72,34,30,149
228070051,37,36,29,72,33,29,151
228075184,38,36,28,75,31,30,153
228080301,38,36,28,75,30,30,153
228085417,38,36,28,73,29,30,155
228090534,38,36,28,70,28,30,153
228095650,39,36,28,69,28,30,152
228100767,38,36,29,66,27,30,152
228105884,38,36,28,66,26,30,156
228111000,38,36,28,68,24,30,152
228116014,38,36,28,68,25,30,161
228121131,38,36,28,67,25,30,164
228126247,38,36,28,65,24,30,166
228131364,38,36,28,66,24,30,169
228136481,38,36,28,65,24,30,172
228141598,38,36,28,65,24,30,174
228146715,38,35,28,63,23,30,176
228151832,38,36,28,61,23,30,179
228156948,38,36,28,59,22,30,181
228162065,38,36,28,58,22,30,183
228167183,38,36,28,63,22,30,185
228172300,38,36,28,63,22,30,186
228177416,39,36,28,68,22,30,184
228182533,38,36,28,66,22,30,187
228187653,38,36,29,64,22,30,189
228192768,38,36,28,65,21,30,189
228197884,38,36,28,65,21,30,189
228203001,38,36,28,65,21,30,189
228208119,38,36,28,63,21,30,188
228213235,38,36,29,61,21,30,188
228218351,38,36,29,60,21,30,186
228223470,38,36,29,59,21,30,186
228228589,38,36,29,61,21,29,181
228233705,38,36,29,60,21,29,178
228238822,38,36,29,61,21,29,174
228243941,38,36,29,60,21,29,174
228249059,38,36,29,62,21,29,172
228254175,38,36,29,61,21,29,169
228259294,38,36,29,62,21,29,166
228264412,38,36,29,67,21,29,163
228269531,38,36,29,66,21,29,159
228274462,38,36,28,67,21,29,155
228279496,38,36,29,66,21,29,151
228284530,38,36,29,66,21,29,148
228289564,38,36,29,64,21,29,144
228294599,38,36,28,62,21,29,140
228299636,38,36,29,61,21,29,136
228304674,38,36,29,60,21,29,131
228309712,38,36,29,59,20,30,127
228314748,38,36,29,59,20,29,125
228319786,38,36,29,59,21,29,123
228324824,38,36,29,59,21,29,120
228329862,38,35,28,58,21,29,118
228334899,38,36,29,58,20,29,114
228339937,39,37,28,59,21,30,112
228344975,38,36,28,64,21,30,109
228349771,38,36,29,63,21,29,106
228354409,38,36,29,62,21,30,103
228359082,38,36,28,62,21,29,100
228363755,38,36,29,61,21,29,97
228368428,38,36,28,63,20,29,94
228373101,38,36,29,65,21,29,92
228377774,38,36,29,68,21,29,89
228382447,38,36,28,67,21,30,86
228387120,38,36,29,65,21,29,84
228391793,38,36,29,64,21,29,81
228396466,38,36,29,64,21,29,78
228401138,38,36,29,63,21,29,76
228405811,38,36,29,61,20,29,73
228410483,38,36,29,60,21,29,72
228415156,37,36,29,59,21,29,72
228419829,38,36,29,57,21,30,71
228424423,38,36,28,56,21,29,71
228429183,38,36,28,55,21,29,71
228433937,38,36,28,55,21,29,70
228438723,38,37,29,54,22,29,70
228443477,38,36,29,54,21,30,70
228448246,38,36,28,54,21,29,69
228453027,38,36,29,53,21,29,69
228457781,38,36,29,52,21,30,69
228462534,38,36,28,52,21,29,68
228467316,38,36,29,51,21,29,68
228472084,38,36,29,50,21,30,68
228476844,38,36,29,51,21,29,68
228481597,38,36,29,52,21,30,68
228486351,38,36,29,53,20,30,68
228491111,38,36,29,53,20,30,68
228495865,38,36,29,53,21,30,68
228500568,38,36,28,54,21,30,67
228505320,38,36,29,57,21,30,67
228510084,39,36,29,57,21,30,67
228514837,38,36,29,56,21,30,67
228519590,38,36,28,56,21,30,67
228524342,38,36,28,55,21,30,67
228529095,38,36,29,54,21,30,67
228533847,38,36,28,53,21,30,67
228538600,38,36,29,55,21,29,67
228543367,38,36,28,55,21,29,67
228548119,38,36,29,56,21,30,67
228552872,38,36,29,56,20,30,67
228557626,38,36,28,55,21,30,67
228562380,38,36,30,54,21,29,67
228567132,38,36,29,54,21,29,67
228571885,38,36,29,53,20,30,66
228576557,38,36,29,52,21,29,66
228581310,38,36,28,52,21,30,65
228586063,38,36,28,54,21,30,64
228590817,38,36,29,56,21,29,63
228595572,38,37,29,62,20,30,63
228600326,38,36,28,61,21,30,63
228605079,38,36,29,61,21,29,62
228609834,38,36,29,60,21,29,62
228614589,38,36,28,61,21,30,62
228619343,38,36,29,61,21,29,61
228624097,38,36,28,60,20,29,61
228628852,39,36,29,60,21,30,62
228633607,38,36,29,60,21,29,61
228638361,38,36,29,59,21,29,62
228643116,38,36,29,58,21,30,63
228647871,38,36,29,59,20,30,62
228652561,38,36,29,64,20,30,63
228657315,38,36,29,64,21,30,64
228662069,38,36,28,65,21,29,64
228666824,37,36,28,68,21,31,65
228671578,38,36,29,66,21,30,65
228676332,38,36,28,65,21,30,65
228681118,38,36,29,71,21,30,66
228685872,38,36,29,71,21,31,66
228690636,38,36,29,69,21,30,67
228695390,38,36,28,67,21,30,67
228700155,38,37,29,65,21,29,68
228704909,38,36,29,64,21,30,69
228709664,38,36,29,62,21,30,69
228714423,38,36,29,60,21,30,70
228719194,38,36,28,60,21,30,71
228723948,38,36,28,62,21,30,72
228728619,38,36,28,62,20,30,72
228733373,38,36,29,62,21,30,73
228738127,39,36,28,61,21,29,73
228742882,38,36,28,59,21,30,74
228747636,38,36,29,59,21,30,74
228752391,38,36,28,58,21,30,75
228757145,38,36,28,58,21,30,75
228761900,38,36,29,57,21,30,75
228766655,38,36,29,57,21,29,76
228771409,38,36,28,58,21,30,77
228776164,38,36,28,61,19,29,77
228780918,38,36,28,64,21,30,77
228785672,38,36,29,65,21,30,78
228790426,38,36,29,66,20,30,78
228795181,38,36,29,66,21,30,78
228799935,38,36,29,66,20,30,78
228804623,38,36,28,65,21,30,79
228809377,38,36,29,63,20,30,80
228814130,38,36,29,62,21,30,81
228818884,38,37,29,60,21,30,82
228823637,38,36,29,61,21,31,81
228828390,38,36,29,60,21,30,82
228833144,38,36,28,59,21,31,83
228837898,38,36,28,61,21,31,83
228842652,38,36,29,62,21,30,82
228847405,38,36,29,62,21,30,82
228852158,38,36,28,64,21,30,82
228856912,38,36,29,62,20,30,82
228861666,38,36,29,62,20,31,82
228866421,38,36,28,64,21,30,82
228871175,38,36,29,64,21,30,84
228875928,38,36,28,64,22,30,85
228880518,38,36,29,63,21,30,83
228885190,38,36,29,64,21,29,82
228889861,38,36,29,65,21,30,83
228894532,38,36,28,66,21,30,81
228899205,38,36,29,66,21,30,80
228909546,38,36,28,66,21,30,77
228914142,38,37,29,72,21,30,77
228918755,38,36,28,69,21,30,76
228923368,38,36,29,72,21,30,74
228927982,38,36,29,78,21,30,75
228932597,38,36,28,79,21,30,74
228937211,38,36,28,77,21,30,74
228941826,38,36,28,76,21,30,73
228946469,38,36,29,75,21,30,71
228951127,38,36,29,73,21,30,70
228955785,38,36,28,72,21,30,69
228960677,38,36,29,73,21,30,68
228965431,38,36,29,71,21,30,67
228970196,38,36,29,69,21,30,66
228974961,38,36,29,68,21,29,66
228979726,38,36,29,69,20,30,64
228984492,38,36,28,69,21,30,65
228989257,38,36,29,68,21,30,65
228994022,38,36,29,66,21,30,65
228998788,38,36,29,64,21,30,66
229003553,38,36,28,64,21,30,66
229008336,39,36,29,64,21,30,66
229013101,38,36,28,64,21,31,66
229017867,38,36,28,63,21,30,67
229022633,38,36,29,62,21,30,66
229027398,37,36,28,64,21,30,66
229032164,38,36,29,63,21,30,67
229036865,38,36,29,64,21,30,66
229041711,38,36,28,64,21,30,67
229046566,38,36,29,64,21,29,66
229051412,38,36,29,64,21,30,66
229056257,38,36,29,63,21,30,66
229061103,38,36,29,62,21,30,66
229065950,38,36,28,64,21,30,66
229070797,38,37,29,62,21,30,67
229075644,38,36,28,60,21,30,66
229080492,38,36,29,59,21,30,67
