time,EMG1,EMG2,EMG3,EMG4,EMG5,EMG6,EMG7
58183393,38,36,29,59,21,30,87
58188650,38,36,29,58,21,30,86
58193722,38,35,29,58,21,30,85
58198764,38,36,29,57,21,30,83
58203806,38,36,29,58,21,30,81
58208879,38,36,29,59,21,30,80
58213888,38,37,29,58,21,30,79
58218905,38,36,29,57,21,30,78
58223918,38,36,29,59,21,30,77
58228940,38,37,29,61,21,30,77
58233954,38,36,29,60,21,30,78
58238980,38,36,29,59,21,30,77
58244023,38,36,29,57,21,30,77
58249070,38,36,29,57,21,30,76
58254089,38,36,29,55,21,30,76
58259108,39,36,29,55,21,30,75
58264005,38,36,29,54,21,29,75
58269113,38,37,29,54,21,30,74
58274207,38,39,29,55,20,30,76
58279292,38,39,29,54,21,30,78
58284416,38,39,28,53,21,30,77
58289501,39,39,29,52,21,30,76
58294598,38,38,29,52,21,30,77
58299684,38,40,29,51,21,30,77
58304769,38,41,29,51,20,30,76
58309854,40,43,28,50,21,30,75
58314956,40,43,28,49,21,30,74
58320060,40,51,28,49,21,30,75
58325144,42,59,29,49,21,30,77
58330229,42,61,29,49,21,30,80
58335315,42,61,28,49,21,30,85
58340402,45,69,29,50,20,29,93
58345448,45,77,28,50,21,30,99
58350526,47,92,29,50,21,30,97
58355606,47,92,29,50,21,31,95
58360686,48,88,28,50,21,30,93
58365763,47,84,28,49,21,30,91
58370842,46,81,28,49,21,30,90
58375922,46,81,28,48,21,30,90
58381002,46,80,29,49,21,30,92
58386080,45,76,28,49,21,30,94
58391160,45,72,28,49,21,30,97
58396240,44,69,28,51,21,30,106
58401321,44,72,29,52,21,30,111
58406400,44,80,29,52,21,30,113
58411481,43,80,28,57,21,30,111
58416562,43,94,29,63,21,30,107
58421643,42,97,28,62,21,31,103
58426724,43,94,29,61,21,30,101
58431657,44,95,28,60,21,30,101
58436737,42,89,28,58,21,30,100
58441817,42,83,28,57,21,30,100
58446898,41,78,29,57,20,31,99
58451978,41,73,28,55,21,30,100
58457058,41,69,29,54,21,31,100
58462138,40,66,29,53,21,31,100
58467218,40,63,28,53,21,32,99
58472298,40,63,29,52,25,32,101
58477378,40,70,29,51,27,31,103
58482459,41,79,28,51,27,31,104
58487539,42,77,28,50,27,31,104
58492619,45,73,28,49,26,31,104
58497699,44,70,28,49,26,30,106
58502779,43,66,28,49,33,31,104
58507860,43,63,29,49,37,31,108
58512810,42,60,28,48,65,32,113
58517887,42,58,28,48,94,32,117
58522964,40,55,28,49,119,32,116
58528041,41,53,28,48,112,31,114
58533118,41,53,28,49,106,32,112
58538195,41,54,28,49,100,31,108
58543271,40,53,28,50,92,31,105
58548348,40,51,28,57,88,31,101
58553425,40,50,28,61,85,31,98
58558503,40,48,28,60,93,31,96
58563580,39,47,28,60,102,31,102
58568657,39,46,28,59,108,31,112
58573733,39,45,29,58,107,31,113
58578810,39,44,28,58,115,31,109
58583886,39,43,28,58,106,31,110
58588946,39,42,29,57,101,31,108
58594023,39,42,29,56,92,31,105
58599101,38,41,28,56,112,32,103
58604179,39,41,28,57,135,34,99
58609256,38,40,29,57,144,36,97
58614334,38,40,28,56,190,36,94
58619412,38,39,28,55,208,36,107
58624489,38,39,28,56,197,36,116
58629593,38,39,29,56,189,36,121
58634670,38,38,28,56,176,35,147
58639748,38,38,29,64,184,36,154
58644827,38,38,28,71,181,35,148
58649904,37,38,29,70,170,34,142
58654981,38,38,29,88,156,34,138
58660059,38,37,29,115,182,34,134
58665138,38,37,28,146,186,37,136
58670143,38,37,28,154,232,43,145
58675245,38,37,29,145,292,45,175
58680349,38,37,28,180,284,48,174
58691174,38,37,29,246,241,46,171
58696163,38,37,29,239,219,45,164
58701200,38,37,28,223,198,43,157
58706237,38,39,29,205,181,42,150
58711274,38,38,28,188,180,41,144
58716313,38,39,29,172,168,39,138
58721352,38,39,29,160,152,39,141
58726390,38,39,29,149,140,38,139
58731435,38,38,29,137,164,39,147
58736522,37,38,29,130,172,42,166
58741609,38,38,29,131,163,42,174
58746696,38,38,29,130,184,43,165
58751620,38,38,29,144,185,44,158
58756623,38,38,29,153,170,43,156
58761626,38,37,29,158,167,42,152
58766629,38,37,28,166,168,43,148
58771632,38,37,29,158,161,44,143
58776636,38,37,29,154,152,43,138
58781640,38,37,29,150,164,46,134
58786643,38,38,29,161,198,50,133
58791647,38,37,29,155,216,54,140
58796650,39,38,29,164,196,53,148
58801654,38,39,29,162,182,51,142
58806657,38,42,29,170,169,49,141
58811661,38,43,29,168,178,48,138
58816671,39,43,29,176,178,52,133
58821675,39,42,29,169,170,54,134
58826265,39,41,29,159,158,53,133
58830838,39,41,29,152,153,52,131
58835496,39,40,29,145,162,54,137
58840098,38,40,29,143,153,53,139
58844701,38,40,29,164,144,52,146
58849303,38,40,29,188,136,49,141
58853906,37,39,29,215,131,48,135
58858509,38,39,29,249,125,48,131
58863112,38,38,29,264,161,55,128
58867715,38,39,29,253,221,63,129
58872318,38,43,29,251,279,64,135
58876921,46,46,29,239,262,68,165
58881524,66,65,29,239,271,68,166
58886128,74,70,29,252,260,66,160
58890732,83,80,29,246,241,63,154
58895279,80,88,29,250,228,60,148
58899961,76,86,29,239,219,58,142
58904646,72,82,29,239,209,56,135
58909330,69,78,29,226,193,54,130
58914012,66,74,29,213,210,53,125
58918696,63,70,29,241,211,52,121
58923381,60,66,29,289,222,57,121
58928065,58,64,28,283,233,57,137
58932748,56,61,29,269,218,54,134
58937433,54,59,29,258,205,53,129
58942117,53,56,29,247,195,53,124
58946801,51,57,29,236,193,51,121
58951485,50,62,28,224,192,52,117
58956170,51,75,27,220,177,50,113
58960855,51,76,29,231,164,48,110
58965501,51,74,28,238,151,46,107
58970179,50,72,28,230,150,46,120
58974857,49,68,29,222,159,47,123
58979535,48,65,29,218,158,46,162
58984213,47,64,29,207,173,45,198
58988891,46,61,29,198,171,44,251
58993569,45,59,28,201,171,44,243
58998247,44,57,28,205,166,43,234
59002925,44,56,28,218,153,42,220
59007604,43,53,28,222,141,41,210
59012283,43,52,29,230,132,40,200
59016962,42,51,28,233,122,38,190
59021640,42,56,28,234,145,42,182
59026319,41,63,29,237,169,45,174
59030998,41,61,28,223,185,46,168
59035648,41,60,28,215,177,45,171
59040326,40,58,28,208,162,43,185
59045013,40,56,29,193,184,44,178
59049702,40,53,28,179,193,43,175
59054380,40,52,28,171,189,42,167
59059058,40,50,28,167,174,40,161
59063745,40,49,28,167,159,39,154
59068423,39,48,29,160,149,39,149
59073130,40,47,28,156,142,39,143
59077808,39,45,28,156,138,41,138
59082487,39,44,28,176,130,40,133
59087177,39,44,28,183,137,40,128
59091855,39,43,28,173,141,40,124
59096537,38,42,28,165,132,41,120
59101215,39,42,28,156,158,40,116
59105882,38,41,28,150,160,40,154
59110556,38,41,29,150,148,40,168
59115231,38,40,28,141,137,38,162
59119905,38,40,28,157,128,38,154
59124578,38,41,28,205,121,37,148
59129253,38,39,28,219,112,37,142
59133927,38,40,28,235,105,36,137
59138601,39,38,28,223,97,36,132
59143275,38,38,28,215,91,37,128
59147949,38,38,28,204,94,36,123
59152623,38,38,28,199,94,36,122
59157297,38,38,28,197,89,36,130
59161972,38,38,28,194,85,37,130
59166646,38,38,28,184,88,36,150
59171326,38,37,28,194,87,35,151
59176001,37,37,28,234,86,35,147
59180543,38,37,28,249,89,35,142
59185217,38,37,28,298,93,35,138
59189893,38,37,28,322,96,35,134
59194567,38,37,28,320,90,34,131
59199242,38,37,28,326,92,34,128
59203917,38,37,28,372,90,34,127
59208592,38,37,28,356,87,33,123
59213267,38,37,28,334,84,34,142
59217942,38,37,28,347,80,33,163
59222618,38,37,28,374,89,33,164
59227294,38,37,28,380,90,33,169
59231968,38,37,28,402,89,36,171
59236643,38,37,28,474,85,37,176
59241320,38,37,28,494,84,37,180
59245995,38,36,28,480,84,35,184
59250649,38,37,28,451,78,35,187
59255352,38,37,28,429,73,33,191
59260054,38,37,28,414,68,34,196
59264755,38,37,29,408,68,34,198
59269457,38,37,28,486,70,34,201
59274160,38,38,28,700,67,34,198
59278863,38,38,28,807,67,35,221
59283565,38,38,29,828,63,33,225
59288267,39,38,29,857,59,33,242
59292970,38,39,29,840,56,33,250
59297673,38,39,29,774,53,32,252
59302376,38,39,29,805,54,32,254
59307081,38,38,29,736,53,32,255
59311787,38,38,29,671,53,32,256
59316493,38,38,30,620,53,32,256
59321198,37,38,29,577,50,31,258
59325685,38,38,29,559,47,31,258
59330308,38,37,29,509,45,31,258
59334932,38,37,29,467,43,31,260
59339555,38,37,29,437,41,31,260
59344178,38,37,29,408,39,32,260
59348801,38,37,29,385,37,33,260
59353424,38,37,29,379,36,32,260
59358047,38,37,29,380,35,33,259
59362670,38,37,29,375,33,33,258
59367294,38,37,29,348,32,34,257
59371917,38,37,30,320,31,34,254
59376541,38,37,28,293,30,34,251
59381164,38,37,29,268,29,33,247
59385787,38,38,29,246,29,33,242
59390410,38,37,29,226,28,34,236
59395151,38,36,30,208,27,34,232
59399855,38,36,29,192,26,34,226
59404569,39,36,29,177,26,34,219
59409282,37,37,29,164,26,33,210
59413996,38,36,29,152,25,33,201
59418710,38,36,29,143,25,33,192
59423424,38,36,29,133,24,33,182
59428138,38,36,29,124,24,33,174
59432867,38,36,29,117,24,32,167
59437588,39,36,29,110,23,32,160
59442319,39,36,29,104,23,32,153
59447055,38,36,30,98,23,33,148
59451772,38,36,29,93,22,32,142
59456512,38,36,29,89,22,32,137
59461226,38,36,30,85,22,31,133
59465949,42,36,29,81,21,32,132
59470541,47,36,29,78,22,32,131
59475336,47,36,29,75,22,32,130
59480157,50,36,29,73,22,32,130
59484986,50,36,29,71,22,33,132
59489814,50,36,29,69,22,33,133
59494635,50,36,29,67,22,33,133
59499442,48,36,29,66,22,33,133
59504251,50,36,29,64,22,32,135
59509062,49,36,29,63,22,32,137
59513868,48,36,29,61,24,34,139
59518663,47,36,29,60,25,33,141
59523458,46,36,29,58,25,32,144
59528252,45,36,29,57,24,32,146
59533064,45,36,29,56,24,33,146
59537859,44,36,29,56,24,32,145
59542665,44,36,28,61,24,32,144
59547359,43,36,29,64,24,33,141
59552146,42,36,29,66,23,32,139
59556933,42,36,29,66,24,32,137
59561722,42,36,29,64,23,33,135
59566510,42,36,29,64,23,32,133
59571298,41,36,29,62,23,33,132
59576093,41,36,29,62,23,32,132
59580883,42,36,29,65,23,33,132
59585672,41,36,29,67,23,33,133
59590459,40,36,29,66,22,34,134
59595272,40,36,29,64,24,33,133
59600062,40,36,29,62,24,33,130
59604851,40,36,28,62,24,33,127
59609638,40,36,28,60,25,34,124
59614428,40,36,29,59,25,33,122
59619218,39,36,29,58,24,33,119
59623881,39,37,28,59,25,33,117
59628669,39,36,29,62,30,32,113
59633458,39,36,29,61,30,32,111
59638247,39,36,29,61,29,33,108
59643034,39,36,28,65,29,33,105
59647823,39,36,28,68,29,32,103
59652613,39,36,29,67,28,32,100
59657402,39,36,29,65,27,32,98
59662191,38,36,28,63,27,32,96
59666980,39,36,28,62,26,32,94
59671769,38,36,29,61,26,32,92
59676558,38,36,28,59,25,31,91
59681364,38,36,29,58,25,31,90
59686189,38,36,29,57,25,31,89
59691005,38,36,29,56,24,31,89
59695817,38,36,28,55,24,31,89
59700551,38,36,29,54,24,31,89
59705338,38,36,29,53,24,31,89
59710125,38,37,29,52,24,31,89
59714912,38,36,29,51,23,31,90
59719754,38,36,28,51,23,31,90
59724541,38,36,29,51,23,31,91
59729328,38,36,29,52,22,30,92
59734115,38,37,28,51,22,30,92
59738902,38,36,29,54,22,30,92
59743715,38,36,28,58,22,30,92
59748502,38,36,29,57,22,30,92
59753289,38,36,28,57,22,30,93
59758076,38,36,29,56,22,30,93
59762863,38,36,28,55,22,30,100
59767649,38,36,29,54,22,30,102
59772434,38,36,29,54,22,31,101
59777220,38,36,28,53,22,31,99
59781125,38,36,29,53,22,30,105
59785912,38,37,29,53,22,31,110
59790698,38,38,29,52,22,31,123
59795485,38,41,29,52,21,31,123
59800272,38,48,28,52,22,31,129
59805058,38,47,29,52,21,31,150
59809845,38,51,28,51,21,31,161
59814632,38,52,29,50,21,31,169
59819419,38,50,28,50,21,31,165
59824206,38,49,28,50,21,31,166
59828993,38,48,28,50,21,31,162
59833780,38,47,29,50,21,31,156
59838567,38,48,29,50,21,31,149
59843354,38,59,29,50,21,31,147
59848145,38,66,29,48,21,31,145
59852932,39,68,28,49,21,31,140
59857613,38,66,28,49,22,32,137
59862437,38,66,29,55,22,31,132
59867249,38,63,28,54,22,31,133
59872061,38,61,28,54,22,31,133
59876873,39,60,28,54,22,32,131
59881684,40,58,29,53,22,31,126
59886497,45,58,28,53,22,31,122
59891310,51,57,29,52,23,33,118
59896121,51,72,29,52,23,37,115
59900933,55,78,28,52,29,37,114
59905747,57,81,29,52,34,40,115
59916229,53,95,28,55,37,45,120
59920951,53,97,28,57,39,43,122
59925699,52,98,28,57,44,44,121
59930447,51,93,29,62,41,45,120
59935196,49,88,28,61,40,45,121
59939732,49,86,29,62,42,44,121
59944404,50,83,29,64,54,44,125
59949077,50,79,29,64,56,43,131
59953777,49,76,29,66,64,42,126
59958494,49,81,28,70,64,42,128
59963210,48,114,28,69,72,42,127
59967926,51,120,28,68,79,43,121
59972643,64,119,29,70,89,43,118
59977359,63,115,29,75,93,45,114
59982076,71,113,29,74,128,44,110
59986792,72,121,29,77,136,43,107
59991509,70,131,29,79,139,42,104
59996226,71,130,29,88,140,41,102
60000943,68,135,29,88,156,40,108
60005661,65,128,29,85,165,39,112
60010517,62,122,28,86,181,40,118
60015350,73,119,29,84,195,42,121
60020184,79,127,29,81,203,45,119
60025017,83,141,29,77,205,49,120
60029851,80,156,29,74,218,50,119
60034684,77,149,29,72,205,49,120
60039535,73,145,29,69,190,46,124
60044394,69,136,29,68,176,45,128
60049233,67,140,28,66,163,43,133
60054066,66,138,28,64,155,43,135
60058900,63,131,29,63,148,43,136
60063733,60,122,29,61,137,42,134
60068567,59,116,29,59,131,42,133
60073401,58,112,29,58,126,40,129
60078235,58,118,29,59,121,40,124
60082990,58,122,29,60,134,38,119
60087906,62,127,29,67,157,39,114
60092820,65,124,28,85,167,39,111
60097734,64,118,29,89,153,38,107
60102650,61,109,28,90,141,37,104
60107566,59,103,29,88,133,36,101
60112480,57,105,29,84,126,36,99
60117394,54,108,29,80,117,35,97
60122312,53,118,28,77,112,35,95
60127228,52,110,29,74,103,34,109
60132142,49,102,29,73,94,34,119
60137057,49,96,29,71,88,34,116
60141974,48,90,28,69,88,33,113
60146890,47,84,29,66,95,33,115
60151804,46,79,28,64,102,33,122
60156721,45,75,28,62,96,33,125
60160748,44,71,29,62,88,32,122
60165656,44,68,29,66,83,32,132
60170565,43,64,29,73,79,32,136
60175474,42,61,29,85,76,32,134
60180384,42,59,29,82,71,32,131
60185292,41,56,29,78,68,32,137
60190202,41,54,28,75,63,31,137
60195112,41,52,29,73,70,31,139
60200021,41,51,29,70,73,31,151
60204931,40,49,28,68,73,31,151
60209841,40,48,28,66,69,30,149
60214750,40,47,28,65,66,30,145
60219660,40,46,28,64,65,30,141
60224571,40,45,28,64,60,30,138
60229481,39,45,27,63,59,30,131
60234391,39,45,27,62,56,30,128
60238418,39,43,27,62,76,30,123
60243328,39,43,27,61,100,31,119
60248238,39,42,27,60,120,31,116
60253148,39,41,27,73,125,31,112
60258058,38,41,28,83,120,30,109
60262968,38,41,28,79,116,30,114
60267878,39,40,28,79,141,31,114
60272788,38,40,28,83,143,32,117
60277698,38,39,29,87,166,33,117
60282632,39,39,28,86,160,33,120
60287558,38,40,28,82,160,33,123
60292468,38,39,28,80,170,33,127
60297407,38,38,29,83,193,36,130
60302317,38,38,28,80,184,36,128
60307228,38,38,29,78,167,35,137
60312082,38,37,29,78,156,34,147
60316988,37,37,29,82,142,34,148
60321895,38,37,29,79,133,34,156
60326801,39,37,28,87,122,33,181
60331723,38,37,28,90,112,34,196
60336630,38,37,28,102,102,33,211
60341536,38,37,29,114,97,33,226
60346442,38,37,28,132,90,33,240
60351349,38,37,29,146,89,33,254
60356255,38,37,28,147,97,32,266
60361161,38,37,28,147,113,33,279
60366067,38,37,28,156,120,32,291
60370974,38,37,29,162,116,32,302
60375880,38,36,29,232,114,32,313
60380786,38,37,28,274,115,31,324
60385677,38,36,28,320,107,31,334
60390583,39,36,28,304,101,31,344
60395502,38,36,29,321,108,31,353
60400419,38,36,28,368,115,31,361
60405325,38,36,28,363,106,31,370
60410232,38,36,28,345,108,30,377
60415138,38,36,29,320,112,31,385
60420047,37,36,28,296,113,31,392
60424953,38,36,28,317,107,31,392
60429859,38,37,29,402,152,31,400
60434767,38,36,29,454,166,31,407
60439675,38,36,28,472,197,33,412
60444581,38,36,29,440,185,34,417
60449488,38,36,29,410,174,34,420
60454397,38,36,29,387,181,34,424
60459306,38,36,29,365,176,33,426
60464239,38,36,29,368,177,33,429
60469173,38,36,29,363,185,33,431
60474108,38,35,29,340,168,32,432
60479042,38,36,29,310,154,35,432
60483974,38,36,29,282,142,36,431
60488910,38,36,29,258,131,37,429
60493845,38,36,29,235,120,40,425
60498778,38,36,29,215,111,39,420
60503712,38,36,29,197,102,39,415
60508647,38,36,29,181,93,41,408
60513583,38,36,29,167,86,41,400
60518516,38,36,29,154,79,41,391
60523452,38,36,29,143,73,40,382
60528387,38,36,29,133,68,40,372
60533322,38,36,29,124,63,42,360
60538039,38,36,29,116,59,43,348
60542894,38,37,29,110,55,43,335
60547751,38,36,29,102,51,43,321
60552607,38,36,29,97,48,41,307
60557462,38,36,29,94,45,41,293
60562318,42,36,29,93,43,40,277
60567174,50,36,29,89,41,39,261
60572030,50,36,29,85,39,39,247
60576887,66,36,29,81,37,38,234
60581743,79,36,29,79,35,37,222
60586600,80,36,29,76,33,36,212
60591456,94,36,29,74,33,36,202
60596313,92,36,29,71,31,35,192
60601169,87,36,29,69,33,35,185
60606026,82,36,29,67,37,35,180
60610882,79,36,29,65,36,35,176
60615797,78,36,29,113,34,34,173
60620725,79,37,29,232,33,33,172
60625644,88,37,29,252,32,33,172
60630562,88,37,29,250,32,33,173
60635481,86,37,29,238,32,33,174
60640400,101,38,29,223,31,35,177
60645318,95,39,29,207,30,34,180
60650237,89,39,29,190,29,35,184
60655156,84,39,29,175,28,33,187
60660075,79,38,30,162,28,33,189
60664993,75,38,29,151,27,33,192
60669912,71,38,29,141,26,32,195
60674831,68,38,29,132,26,32,198
60679750,65,38,29,126,26,32,201
60684673,62,37,29,118,26,32,203
60689535,59,37,29,113,25,32,203
60694555,57,37,28,108,24,32,203
60699556,55,37,29,101,24,32,201
60704571,54,37,29,96,24,32,197
60709573,52,37,29,91,23,32,191
60714574,50,37,29,87,23,32,185
60719580,49,37,29,83,23,32,179
60724582,48,37,29,80,23,32,173
60729583,47,37,29,77,23,32,168
60734584,46,37,29,76,23,32,162
60739635,45,37,29,73,22,31,155
60744654,45,37,28,70,22,32,146
60749654,44,36,29,68,22,31,140
60754670,43,37,29,65,22,31,134
60759671,43,36,29,64,22,32,129
60764672,42,36,29,62,22,30,124
60769610,42,36,29,61,22,31,120
60774604,41,36,29,60,22,31,116
60779598,41,36,28,60,22,31,113
60784592,41,36,28,59,22,31,110
60789586,40,36,28,59,22,31,106
60794581,40,36,28,59,22,31,104
60799575,40,36,28,57,22,31,102
60804569,40,36,28,56,22,30,102
60809565,39,36,29,55,22,30,103
60814561,39,36,29,54,21,30,102
60819554,39,36,29,53,22,30,102
60824548,39,36,28,53,22,30,103
60829545,39,36,28,52,22,30,104
60834572,39,36,29,51,22,31,105
60839566,39,36,28,51,22,31,107
60844561,38,36,29,50,21,30,110
60849471,39,36,29,50,21,30,110
60854465,38,36,29,49,21,30,124
60859459,38,36,28,49,21,31,123
60864455,38,36,28,49,21,31,133
60869451,39,36,28,49,22,30,153
60874446,38,36,29,48,28,30,166
60879441,39,40,28,48,33,30,171
60884438,38,42,28,47,36,30,168
60889434,38,50,29,49,35,30,171
60894429,38,49,29,48,34,30,189
60899426,38,50,28,48,40,31,192
60904422,38,50,29,49,44,30,233
60909419,38,49,28,49,44,30,253
60914415,38,47,28,49,47,30,243
60919411,38,46,28,50,48,30,263
60924408,38,49,28,50,45,30,265
60929335,38,49,28,50,44,31,254
60934328,38,48,28,49,51,31,248
60939321,39,55,29,49,49,30,239
60944314,39,62,29,49,48,31,229
60949307,41,76,28,49,47,32,217
60954300,41,80,28,49,52,32,208
60959293,42,78,28,48,49,32,205
60964286,42,85,28,49,46,31,207
60969279,43,86,29,49,44,31,211
60974272,43,88,28,56,42,31,209
60979265,47,84,28,55,39,33,203
60984258,60,103,29,55,37,33,193
60989251,70,123,29,54,42,33,184
60994243,74,124,29,55,57,33,175
60999236,77,119,29,57,57,33,167
61004229,78,116,29,56,54,33,159
61009121,80,118,28,56,58,33,152
61014114,76,110,29,56,70,33,145
61019109,74,110,28,56,92,34,141
61024102,82,118,28,56,119,35,139
61029095,79,112,29,56,133,39,165
61034088,80,106,28,55,127,46,170
61039081,77,121,29,60,125,48,173
61044073,77,120,28,60,139,47,176
61049066,87,128,28,59,135,48,176
61054059,84,131,29,59,128,46,175
61059051,82,128,28,61,126,45,172
61064044,82,137,28,61,141,45,170
61069037,85,148,29,61,182,52,168
61074030,88,153,28,64,200,53,168
61079023,83,168,29,65,268,58,168
61083948,79,172,28,65,296,70,170
61088979,76,184,28,67,276,69,187
61094011,72,175,28,70,288,67,187
61099042,69,161,29,71,279,69,199
61104074,68,149,29,70,254,67,205
61109106,69,138,29,68,235,62,212
61114138,67,129,29,68,215,59,212
61119169,67,136,28,76,198,56,211
61124201,66,154,28,78,179,54,211
61129233,66,176,28,78,169,52,209
61134266,65,171,28,78,158,50,206
61139298,66,166,28,81,145,48,200
61144330,64,160,29,80,141,46,194
61149363,61,153,28,77,134,45,185
61154396,58,141,28,74,129,44,176
61159251,57,131,29,73,132,45,168
61164198,55,121,28,72,136,43,161
61169147,53,112,28,69,126,42,169
61179763,50,96,29,76,105,39,157
61184634,49,90,28,81,97,38,151
61189521,47,85,29,79,89,38,145
61194409,46,80,29,79,82,37,140
61199298,45,75,29,80,76,35,134
61204187,46,71,28,78,70,35,137
61209076,44,68,28,77,66,35,143
61213964,43,64,28,76,62,34,149
61218882,43,61,28,74,58,34,145
61223815,42,59,29,71,54,34,147
61228748,42,56,28,69,51,33,154
61233680,41,54,29,67,50,33,154
61238613,41,52,28,65,47,33,155
61243592,42,51,28,64,61,34,151
61248597,40,49,28,61,74,34,148
61253599,40,48,28,60,95,33,146
61258602,40,47,28,58,91,33,140
61263605,40,46,28,61,84,32,136
61268608,40,45,28,63,78,32,137
61273612,39,44,28,62,72,32,142
61278614,39,44,28,61,67,32,140
61283618,39,44,28,59,63,31,134
61288621,39,43,28,58,66,32,130
61293624,39,43,28,58,66,32,126
61298627,39,42,28,58,62,32,122
61303631,38,42,27,58,58,31,117
61308668,39,41,28,57,67,31,113
61313690,38,40,27,57,73,32,110
61318700,38,40,27,60,74,33,107
61323555,39,40,28,59,99,34,104
61328640,38,39,28,60,93,35,100
61333724,39,39,28,62,90,35,98
61338809,38,39,28,61,88,35,96
61343895,38,39,28,59,85,34,101
61348980,38,38,28,57,84,34,103
61354066,38,38,28,58,87,33,104
61359153,38,38,28,60,86,33,105
61364239,39,38,28,60,89,33,106
61369324,38,38,29,66,82,33,109
61374412,38,37,28,65,76,33,112
61379498,38,37,28,65,71,32,117
61384584,38,37,28,69,75,33,123
61389670,38,37,29,68,75,35,130
61394759,38,37,28,65,78,34,138
61399846,38,37,28,71,77,34,147
61404819,38,37,28,76,73,33,154
61409890,38,37,29,81,70,33,164
61414962,37,37,28,87,67,32,172
61420032,38,37,29,114,72,33,179
61425102,38,37,28,166,68,33,186
61430174,38,37,28,231,64,33,193
61435246,38,36,28,239,60,32,199
61440317,38,36,28,244,55,32,204
61445388,38,36,28,230,52,32,210
61450460,38,36,28,230,48,31,215
61455532,38,37,28,227,46,31,220
61460603,38,36,28,243,43,31,224
61465675,38,36,28,254,41,31,226
61470748,38,36,28,295,42,32,234
61475820,38,36,28,336,39,33,237
61480892,38,37,28,361,37,32,240
61485088,38,36,29,343,36,32,242
61490160,38,36,28,325,35,32,244
61495232,38,36,28,315,33,31,246
61500305,38,36,28,296,32,31,248
61505378,39,36,29,272,31,31,248
61510451,38,36,29,270,30,31,249
61515524,38,36,29,286,29,31,249
61520597,38,36,29,261,28,32,248
61525670,38,36,29,238,28,32,246
61530751,38,36,29,217,27,32,244
61535845,38,36,29,198,27,33,242
61540918,38,36,29,181,26,34,239
61545991,38,36,29,166,26,34,235
61551064,38,36,29,154,25,34,231
61556138,38,36,29,141,25,35,226
61561149,38,36,29,132,24,34,220
61566248,38,36,29,123,24,34,211
61571347,38,36,29,115,24,37,206
61576458,38,36,29,108,24,37,202
61581558,38,36,29,102,23,37,195
61586671,38,36,29,98,23,36,187
61591771,39,36,29,96,23,37,180
61596870,39,36,30,95,22,37,171
61601970,38,36,29,90,22,36,162
61607082,38,36,29,86,22,36,154
61612181,42,36,29,84,22,35,148
61617281,63,36,29,82,22,35,142
61622380,67,36,29,79,22,33,136
61627479,66,36,29,76,22,34,131
61632578,64,36,29,73,22,33,127
61637678,62,37,29,71,22,33,124
61642641,59,36,29,68,23,33,122
61647740,57,37,29,66,25,32,120
61652840,59,36,29,64,30,34,121
61657939,81,37,29,62,29,33,122
61663038,86,36,29,60,30,33,124
61668137,82,36,29,59,33,33,126
61673236,77,36,29,57,34,33,130
61678336,74,36,29,56,33,33,134
61683435,70,37,29,55,32,33,138
61688534,67,36,29,53,31,34,142
61693633,64,37,29,53,30,34,147
61698732,61,37,29,53,29,34,150
61703832,59,37,29,52,28,33,153
61708931,57,37,29,52,27,33,154
61714030,55,37,29,53,26,32,156
61719131,53,37,29,53,26,32,156
61724113,52,37,29,51,26,32,156
61729204,52,37,29,52,25,31,155
61734295,50,37,28,51,25,32,153
61739388,49,37,29,51,26,31,152
61744480,48,36,29,51,24,31,150
61749570,46,36,28,50,24,31,149
61754662,45,36,28,50,24,31,149
61759756,45,36,29,51,23,31,149
61764848,44,36,28,53,23,31,149
61769938,44,36,29,55,23,31,147
61775032,43,36,28,56,23,32,145
61780125,42,36,28,55,23,32,141
61785217,42,36,29,55,23,32,135
61790309,41,36,29,54,22,32,128
61795402,41,36,29,54,22,32,124
61800496,41,37,28,54,22,33,120
61805366,40,36,29,53,22,32,116
61810375,41,36,28,53,22,32,111
61815383,40,36,29,54,22,32,109
61820392,40,36,29,54,22,32,106
61825401,40,36,28,54,21,32,103
61830412,40,36,29,55,22,31,100
61835424,39,36,28,54,22,31,98
61840436,39,36,29,53,21,31,96
61845447,39,36,29,53,21,31,93
61850470,38,36,28,52,21,31,91
61855482,39,36,29,51,21,30,90
61860494,39,36,29,51,21,30,89
61865540,38,36,29,50,21,30,88
61870552,38,36,28,50,21,30,88
61875564,38,36,28,49,21,30,88
61880577,38,36,28,49,21,30,87
61885184,38,36,28,49,22,30,90
61889761,38,36,29,48,22,30,92
61894369,38,36,29,49,22,30,94
61898977,38,36,29,48,22,30,99
61903584,38,36,29,48,24,31,112
61908192,38,36,29,48,29,31,114
61912799,38,41,29,48,36,31,132
61917407,39,43,29,48,38,30,137
61922015,39,48,29,47,37,30,135
61926622,38,48,29,47,35,30,139
61931230,38,46,29,48,33,30,160
61935837,38,44,28,48,32,30,172
61940445,38,46,28,48,31,30,173
61945053,38,45,28,49,42,30,186
61949661,38,44,29,50,48,29,199
61954269,38,44,29,50,55,31,198
61958858,38,44,29,50,67,31,210
61963560,39,44,29,49,65,33,204
61968272,38,44,28,49,64,32,200
61972980,38,45,28,50,72,32,208
61977689,38,46,29,50,69,31,203
61982420,38,46,29,52,64,31,197
61987116,38,47,29,52,62,32,188
61991804,38,54,29,52,59,32,181
61996493,38,60,29,52,54,32,177
62001181,39,72,29,52,52,32,176
62005901,40,79,28,51,49,32,180
62010593,41,79,29,51,48,32,177
62015299,45,76,28,50,50,32,177
62020021,48,72,28,51,52,32,176
62024742,50,73,29,52,51,34,175
62029464,53,97,29,53,51,36,171
62034161,51,100,29,60,49,36,164
62038872,51,112,29,64,48,36,157
62043598,61,111,29,63,47,35,151
62048319,62,107,29,60,45,33,144
62053030,67,102,28,62,44,34,138
62057741,67,112,29,65,45,36,133
62062452,66,121,28,72,58,37,131
62067162,64,126,29,72,78,37,134
62071882,62,142,29,73,93,42,141
62076594,59,136,29,77,120,44,156
62081304,69,130,29,76,137,45,163
62086015,67,137,29,78,141,48,179
62090732,75,137,29,76,178,51,177
62095453,72,131,28,72,190,58,174
62100164,69,123,29,72,186,60,172
62104876,67,126,28,74,170,60,169
62109415,69,134,29,78,182,58,166
62114132,69,152,29,79,193,59,161
62118842,72,172,28,80,219,62,159
62123555,70,174,29,80,208,68,152
62128267,71,179,29,77,202,70,146
62132977,69,169,29,76,198,65,141
62137689,68,158,28,74,196,62,136
62142401,65,146,28,73,187,59,137
62147114,63,138,29,72,183,56,152
62151824,62,162,29,75,169,55,151
62156537,65,176,29,85,195,53,159
62161250,64,188,28,83,196,53,164
62165962,62,185,28,85,192,52,163
62170673,60,170,29,87,186,49,164
62175386,59,174,29,89,184,47,170
62179943,58,174,29,85,173,44,174
62184640,58,169,29,81,160,44,175
62189337,57,165,29,78,149,42,175
62194033,55,161,28,76,139,41,172
62198730,54,149,28,74,132,40,167
62203427,52,139,29,71,126,39,161
62208124,50,129,28,74,117,38,154
62212829,49,120,29,81,121,38,150
62217535,48,112,29,91,114,39,146
62222232,47,105,29,99,113,39,145
62226929,46,100,29,111,103,39,139
62231627,45,95,29,112,95,37,134
62236324,45,90,29,107,89,36,129
62241021,44,85,29,103,86,36,125
62245721,44,80,29,98,83,36,121
62250324,43,76,28,94,77,35,117
62255020,42,72,28,92,72,34,114
62259717,42,68,29,88,68,34,111
62264414,42,65,29,84,65,33,108
62269111,41,62,29,81,61,33,105
62273808,41,59,29,77,57,33,102
62278505,41,57,29,75,54,32,104
62283202,40,55,29,72,53,33,112
62287899,40,53,29,74,50,33,111
62292596,40,51,28,72,47,33,115
62297293,40,50,28,70,45,31,115
62301990,39,49,29,68,43,32,112
62306687,39,48,28,68,41,32,108
62311384,39,47,28,66,40,31,106
62316081,39,46,28,66,38,31,103
62320778,39,46,28,65,36,31,100
62325389,39,45,28,66,35,31,98
62330075,39,45,28,66,34,30,96
62334760,39,44,28,63,34,30,94
62339445,39,44,28,62,35,30,92
62344130,39,43,29,61,35,30,90
62348816,38,42,28,63,37,31,88
62353501,38,42,28,68,36,31,90
62358186,38,41,28,70,36,31,92
62362872,38,41,28,67,34,31,93
62367557,38,40,28,65,35,30,91
62372242,38,40,28,64,43,30,89
62376927,38,40,28,66,59,32,88
62381613,38,39,28,67,69,32,86
62386298,39,39,28,65,68,32,85
62390985,38,39,28,68,64,32,83
62395670,38,38,28,72,63,32,82
62400256,38,38,28,70,60,32,81
62404859,38,38,29,76,58,32,80
62409465,38,38,28,76,54,32,79
62414068,38,38,28,73,51,31,78
62418670,38,37,28,78,49,32,77
62423275,38,38,28,76,47,31,76
62433600,38,37,29,70,41,31,75
62438106,38,37,28,68,41,31,74
62442651,38,37,29,71,43,33,74
62447197,39,37,28,69,47,33,76
62451743,37,37,29,70,45,33,79
62456290,38,37,28,77,48,32,83
62460838,38,37,28,92,45,32,89
62465385,38,36,28,100,43,32,95
62469938,38,37,28,104,41,32,101
62474530,38,36,28,115,40,31,106
62479121,38,36,28,127,38,31,109
62483804,38,37,28,120,37,31,118
62488490,37,36,28,121,38,31,124
62493187,38,36,28,125,43,32,131
62497884,38,36,27,130,43,32,137
62502581,39,36,28,148,41,32,143
62507277,38,36,28,188,39,31,148
62511975,38,37,28,188,37,31,154
62516673,38,36,28,177,36,31,160
62521370,38,36,28,179,37,31,165
62526068,38,37,28,176,36,30,170
62530765,38,36,28,170,34,31,176
62535463,37,36,28,159,33,30,181
62540161,38,36,28,148,32,30,186
62544859,38,36,29,138,31,30,193
62549556,38,36,29,133,30,30,199
62554198,38,36,29,134,29,30,206
62558989,38,36,29,139,28,30,214
62563783,38,36,29,133,28,30,223
62568560,38,36,29,128,27,30,233
62573374,38,36,29,136,26,30,242
62578151,38,36,29,139,26,30,252
62582928,38,36,29,137,25,29,260
62587706,38,36,29,133,25,30,268
62592484,38,36,29,127,25,31,275
62597262,38,36,29,124,24,31,280
62602041,38,36,29,115,24,32,283
62606819,38,36,29,110,24,33,284
62611597,38,36,29,104,23,33,284
62616375,38,36,29,98,23,35,282
62621155,38,36,29,93,23,36,278
62625932,38,36,28,88,23,35,276
62630621,37,37,29,84,23,35,271
62635400,39,36,29,80,23,35,264
62640180,38,36,29,77,22,36,256
62644958,38,36,29,74,22,37,249
62649735,38,36,29,72,23,36,240
62654515,38,37,29,70,22,37,229
62659295,38,36,29,68,22,36,218
62664073,38,36,29,68,22,36,207
62668852,38,36,29,67,22,36,196
62673632,38,36,29,68,22,36,186
62678411,40,36,29,68,22,38,178
62683189,41,36,29,67,22,37,170
62687969,52,36,29,66,22,38,163
62692749,64,36,28,65,22,37,156
62697528,72,36,29,65,21,36,150
62702307,69,36,29,64,20,35,146
62706977,66,36,29,63,21,35,141
62711756,69,37,29,62,21,35,140
62716535,66,37,29,60,21,34,138
62721314,64,37,29,59,22,34,138
62726093,62,36,29,57,26,34,138
62730872,83,36,29,57,27,34,139
62735651,80,37,29,56,26,34,140
62740446,83,37,29,55,26,33,142
62745226,91,37,29,54,27,33,145
62750024,86,37,29,53,29,33,148
62754804,84,37,29,52,31,33,152
62759584,83,38,29,52,29,33,156
62764364,78,38,29,51,29,33,159
62769144,74,37,29,52,28,32,162
62773924,71,37,29,51,27,32,165
62778704,67,37,28,51,26,32,165
62783395,64,37,29,52,26,32,167
62788176,61,37,29,53,26,32,167
62792972,60,38,28,52,26,32,168
62797753,57,37,29,52,26,31,168
62802533,57,37,29,53,25,32,167
62807323,54,37,28,53,25,30,165
62812119,53,37,29,53,25,31,163
62816915,51,36,29,55,25,31,162
62821696,50,37,28,56,24,31,160
62826477,49,37,28,56,23,31,158
62831257,47,37,28,58,24,31,155
62836037,47,37,29,58,23,31,152
62840854,46,37,29,56,23,32,149
62845635,45,37,29,56,23,31,145
62850415,43,37,29,55,24,31,140
62855196,44,37,28,53,23,32,136
62859867,43,36,29,54,23,32,133
62864647,42,36,28,53,23,32,128
62869427,42,36,28,53,23,32,123
62874206,42,36,28,52,22,32,119
62878986,41,37,28,52,23,32,116
62883766,41,36,28,53,22,32,112
62888546,41,36,28,52,22,31,109
62893326,40,36,28,52,22,31,106
62898106,40,36,28,52,22,31,103
62902896,40,36,28,52,21,30,101
62907676,41,36,29,52,22,30,98
62912456,40,36,28,53,22,31,96
62917235,39,37,29,53,22,30,94
62922015,39,36,28,53,21,30,92
62926818,39,36,28,52,22,30,90
62931598,39,36,28,51,21,30,89
62936289,39,37,28,51,21,30,89
62941069,39,36,28,50,21,31,90
62945852,39,37,28,50,21,31,92
62950632,39,36,29,50,21,31,94
62955411,38,36,29,49,21,31,97
62960193,38,36,28,49,21,30,99
62964975,38,36,29,48,21,30,102
62969755,38,35,29,48,21,30,105
62974535,38,36,28,48,21,30,110
62979318,38,36,28,48,21,30,115
62984100,38,36,28,48,21,31,122
62988880,38,36,28,48,21,30,124
62993661,38,36,28,48,21,31,135
62998443,38,38,28,48,21,31,158
63003226,38,40,29,49,21,30,163
63008006,38,40,28,49,22,30,187
63012639,38,40,29,49,28,30,185
63017340,38,40,28,48,29,31,186
63022041,38,41,29,51,36,31,185
63026740,38,44,28,50,35,31,209
63031441,39,45,28,50,35,31,205
63036142,38,44,29,50,37,31,200
63040843,38,45,28,51,36,30,205
63045545,38,48,29,51,39,31,230
63050249,39,47,28,50,37,31,233
63054953,39,48,28,51,35,31,225
63059656,39,49,28,52,35,31,216
63064359,40,53,28,53,36,31,207
63069063,39,61,29,54,37,32,222
63073767,39,59,29,53,36,31,216
63078471,39,64,29,54,34,32,207
63083175,39,76,29,53,33,31,196
63091205,43,94,28,53,33,31,188
63096419,47,89,30,56,32,32,187
63101432,50,90,29,58,31,32,186
63106433,54,91,28,57,30,32,182
63111434,56,92,28,58,30,31,175
63116435,59,110,28,58,36,35,167
63121435,60,106,29,57,44,37,158
63126436,67,117,29,57,43,36,153
63131437,72,116,28,57,41,39,145
63136438,70,124,29,56,45,44,141
63141439,66,141,28,61,49,44,134
63146440,66,157,28,70,50,43,131
63151441,65,150,28,70,61,42,132
63156442,62,148,29,68,65,41,155
63161443,63,141,28,69,71,42,160
63166444,62,132,28,66,88,44,164
63171326,60,129,28,65,94,46,181
63176425,60,132,29,64,100,48,178
63181513,68,137,29,62,104,47,174
63186604,67,146,29,60,104,50,167
63191751,68,138,29,61,120,50,164
63196898,66,135,29,60,128,49,157
63202044,63,130,29,59,144,48,149
63207185,64,125,29,58,144,47,143
63212298,66,126,29,58,158,50,137
63217411,65,137,29,60,162,56,131
63222518,68,150,28,60,151,57,126
63227615,65,138,28,60,146,53,124
63232713,62,128,28,59,135,53,124
63237798,64,133,28,58,127,51,125
63242926,63,142,28,57,118,48,131
63247944,64,158,29,56,127,47,133
63253064,68,161,28,58,133,46,133
63258153,86,152,28,59,144,45,135
63263230,84,144,28,68,168,43,139
63268307,79,137,28,67,159,42,143
63273418,74,128,28,65,149,41,147
63278495,72,120,28,63,140,40,152
63283572,68,112,28,61,128,39,157
63288669,65,108,28,61,116,38,161
63293760,62,105,29,63,106,37,164
63298845,60,99,29,62,118,37,165
63303922,57,97,28,65,130,37,164
63308998,56,98,28,73,140,38,160
63314109,53,94,28,81,130,38,155
63319188,52,88,28,93,119,37,147
63324190,50,82,28,103,109,36,141
63329273,49,78,29,100,101,36,135
63334351,48,73,29,97,94,35,130
63339458,47,69,28,91,92,34,125
63344548,46,67,28,89,92,36,121
63349658,45,62,29,87,90,36,117
63354737,44,60,28,82,89,36,113
63359816,44,57,28,78,83,36,109
63364891,43,55,28,75,78,35,106
63369986,42,53,28,72,72,34,103
63375064,42,51,28,71,67,34,100
63380143,41,49,28,69,63,34,98
63385219,41,48,27,67,58,34,95
63390298,41,47,28,68,54,33,92
63395377,41,46,28,66,50,33,90
63400473,40,45,28,71,48,33,87
63405495,40,44,28,71,48,32,85
63410572,40,44,28,76,55,33,83
63415649,40,44,28,77,67,32,82
63420726,40,43,28,76,67,33,81
63425803,39,43,28,74,70,33,80
63430880,39,43,28,71,65,33,78
63435962,39,42,28,70,61,33,77
63441039,39,41,28,68,57,32,77
63446131,39,41,28,66,53,32,77
63451208,39,40,28,66,50,32,77
63456294,39,40,28,67,47,32,76
63461376,38,40,28,64,44,32,76
63466453,38,39,28,67,42,31,75
63471531,38,39,28,76,40,31,73
63476619,38,39,28,84,38,31,71
63481697,38,38,28,80,36,31,69
63486785,39,38,29,79,34,30,67
63491722,38,38,28,88,34,31,65
63496799,37,37,29,93,32,31,64
63501876,38,37,28,92,38,31,62
63506953,38,37,29,92,36,31,62
63512048,38,37,28,95,38,31,61
63517125,38,37,28,95,43,32,60
63522202,38,37,29,93,48,31,59
63527279,38,37,28,109,46,31,58
63532356,38,37,28,123,45,31,57
63537433,38,37,28,130,42,31,57
63542510,38,37,29,138,40,31,56
63547587,38,37,28,136,38,31,56
63552664,38,37,28,137,36,30,57
63557740,38,37,28,144,35,30,56
63562817,38,36,28,166,34,30,57
63567894,37,36,29,177,34,31,57
63572887,38,36,28,168,32,30,58
63577990,38,36,29,160,32,30,58
63583092,38,37,29,170,36,30,57
63588194,38,36,28,184,34,30,57
63593297,38,36,28,196,33,30,58
63598399,38,36,29,205,32,30,58
63603502,38,36,28,194,31,31,59
63608605,38,36,28,180,30,30,59
63613740,38,36,28,168,29,30,60
63618842,38,36,28,170,28,30,62
63623945,38,36,28,162,27,30,66
63629047,38,36,29,158,27,30,72
63634150,38,36,28,152,27,31,80
63639252,38,36,28,142,26,30,91
63644357,38,36,28,137,25,30,102
63649459,38,36,29,141,25,29,115
63654337,38,36,28,141,24,29,127
63659355,38,37,28,144,24,30,140
63664375,38,36,29,164,24,32,152
63669392,38,36,28,157,24,33,164
63674409,38,36,28,145,23,34,174
63679428,38,36,28,135,23,34,181
63690168,38,36,29,115,23,34,189
63695087,38,36,28,108,22,34,188
63700044,38,36,28,102,22,34,186
63705002,38,36,28,96,22,34,177
63709961,38,36,28,90,22,34,170
63714920,38,36,28,86,22,34,164
63719880,38,35,29,82,22,34,155
63724839,38,36,29,79,22,33,148
63729804,38,36,28,76,21,32,141
63734808,39,36,28,75,21,32,135
63739340,42,36,29,74,22,33,130
63743913,43,36,29,74,21,33,126
63748514,46,37,29,73,21,33,122
63753115,76,37,29,71,21,32,118
63757715,82,36,29,74,21,32,115
63762316,87,36,29,74,21,32,113
63766916,82,37,29,72,22,32,111
63771517,79,36,29,70,21,32,109
63776118,75,37,29,70,21,33,108
63780720,71,36,29,68,21,34,107
63785321,69,36,29,66,21,35,106
63789922,77,36,29,65,24,35,106
63794524,80,36,29,64,26,34,106
63799125,77,36,29,62,26,34,106
63803726,76,37,29,61,25,34,106
63808328,73,37,29,60,24,33,106
63812775,73,37,29,59,25,33,106
63817472,70,37,29,58,25,33,105
63822154,67,37,29,57,25,33,105
63826834,64,37,29,56,25,32,106
63831515,61,37,28,55,25,32,106
63836196,59,37,29,54,24,32,106
63840877,57,37,29,54,24,32,106
63845558,56,36,29,53,24,31,107
63850240,55,37,29,53,24,31,108
63854922,54,36,29,53,23,31,108
63859603,53,36,29,52,24,31,107
63864286,52,36,29,52,24,31,107
63868968,50,36,29,51,24,31,107
63873649,49,36,28,51,23,31,107
63878332,48,36,29,50,23,31,108
63883014,47,36,29,49,23,31,107
63887559,46,36,29,50,23,31,109
63892234,45,36,29,50,23,31,110
63896910,45,37,29,50,23,31,111
63901586,44,36,29,50,22,31,111
63906260,43,37,29,51,22,31,109
63910936,43,37,29,52,22,31,105
63915612,42,37,29,51,22,32,101
63920288,42,37,29,51,22,32,98
63924962,42,37,29,51,22,32,96
63929638,41,37,29,53,22,32,94
63934314,41,37,29,52,22,31,92
63938990,41,38,29,52,21,31,91
63943665,40,36,29,52,21,31,89
63948341,40,36,29,51,21,31,88
63953017,40,37,29,51,22,31,86
63957693,40,37,29,51,21,31,85
63962243,40,36,29,51,22,30,83
63966919,40,36,28,50,22,31,82
63971595,39,36,28,50,22,30,81
63976271,39,36,29,50,22,30,80
63980947,39,36,29,50,21,30,79
63985622,38,36,29,50,22,30,78
63990297,39,36,28,49,21,31,77
63994974,39,36,29,49,21,31,76
63999650,39,36,29,49,21,31,76
64004327,39,36,29,49,21,31,75
64009004,38,36,28,49,21,30,74
64013680,38,36,28,48,21,31,73
64018356,38,36,29,49,21,31,72
64023033,38,36,29,49,21,30,72
64027709,38,36,29,48,21,31,72
64032385,38,35,29,48,21,30,71
64037052,38,36,29,48,21,30,77
64041733,38,36,29,48,20,29,86
64046418,38,36,29,48,21,30,86
64051094,38,37,29,48,21,30,97
64055769,39,37,28,47,21,31,115
64060444,38,38,28,48,21,30,116
64065134,38,41,29,48,21,30,114
64069846,38,45,28,47,21,30,113
64074521,38,48,29,48,21,30,124
64079197,38,47,29,48,21,31,124
64083872,39,46,28,49,21,31,148
64088555,38,45,29,50,22,31,163
64093230,38,45,29,50,28,31,165
64097905,38,45,28,50,35,31,165
64102581,38,48,29,50,41,31,157
64107256,39,47,29,50,53,31,159
64111913,38,49,29,52,79,31,161
64116589,38,63,29,52,97,31,168
64121264,39,67,28,52,92,31,175
64125939,42,69,29,54,85,31,168
64130614,42,65,29,56,79,31,161
64135289,41,71,28,56,73,31,155
64139965,41,74,29,58,68,30,150
64144639,41,74,29,58,64,31,145
64149314,40,73,28,57,61,30,143
64153989,40,79,29,56,58,30,140
64158664,40,75,29,55,55,30,137
64163340,40,72,29,57,53,30,132
64168016,40,73,29,60,50,32,128
64172691,40,95,29,59,49,34,123
64177366,40,128,29,59,46,34,119
64182042,49,162,28,60,46,34,116
64186736,58,166,29,59,46,33,112
64191437,58,168,29,58,46,33,109
64196139,66,176,29,59,50,34,106
64200841,71,180,28,61,54,39,109
64205541,71,178,29,63,54,39,110
64210242,67,180,29,63,58,44,108
64214945,65,176,29,63,62,51,108
64219647,62,165,29,62,82,50,112
64224347,62,159,29,62,102,50,119
64229049,64,158,28,61,116,48,123
64233752,61,165,29,62,117,55,129
64238454,60,167,28,64,143,54,126
64243154,58,162,29,66,153,53,124
64247858,56,154,29,71,205,57,120
64252561,54,148,28,76,198,62,117
64257263,56,141,28,75,234,65,114
64261746,58,139,28,76,283,78,111
64266366,55,139,29,74,276,74,107
64270987,56,134,29,72,265,70,104
64275607,60,143,29,70,253,68,107
64280227,66,148,29,69,248,67,111
64284848,64,139,29,71,245,65,126
64289469,62,129,29,73,254,65,151
64294090,59,120,29,71,242,65,184
64298714,57,118,29,73,246,69,181
64303338,55,116,28,74,229,66,190
64307961,54,115,29,79,246,64,203
64312584,52,113,28,80,253,69,211
64317208,54,112,29,107,267,72,217
64321832,56,115,28,111,264,71,220
64326456,54,117,29,108,309,76,225
64331136,54,124,29,104,313,78,226
64335839,52,124,28,116,285,74,225
64340552,50,129,29,125,259,69,224
64345265,53,126,28,124,238,66,220
64349979,53,124,28,119,230,62,214
64354693,51,115,29,111,216,60,208
64359406,50,108,29,108,208,62,202
64364120,49,101,29,104,200,59,196
64368834,48,95,29,101,182,56,188
64373548,47,89,28,95,166,53,180
64378261,46,85,29,91,152,51,177
64382975,45,80,28,89,138,49,171
64387689,44,76,29,85,129,48,166
64392403,44,72,28,89,120,46,161
64397116,43,67,28,89,126,44,153
64401676,43,67,29,90,142,46,147
64406470,42,66,29,92,149,46,142
64411265,43,65,29,95,152,44,137
64416071,41,63,28,102,141,43,132
64420891,41,60,29,97,140,43,127
64425690,41,57,28,96,133,44,122
64430506,40,55,28,96,130,42,118
64435300,40,53,28,97,120,42,116
64440109,40,51,28,100,110,40,111
64444930,40,50,28,98,104,40,108
64449790,40,48,28,97,99,39,105
64454611,39,47,28,93,97,38,102
64459417,39,46,28,89,105,37,99
64464253,39,45,28,86,110,37,97
64469047,39,44,28,81,109,38,94
64473809,39,44,28,79,101,38,92
64478596,39,44,28,77,109,37,89
64483392,39,43,28,76,102,38,88
64488208,38,42,28,78,101,37,87
64493027,39,42,28,86,94,36,84
64497880,38,41,28,85,86,36,80
64502672,38,41,28,83,80,35,78
64507458,38,40,28,85,74,34,76
64512253,38,40,28,89,68,34,73
64517040,38,40,28,89,63,34,74
64521826,39,39,28,92,60,34,72
64526613,38,39,29,97,58,34,72
64531399,38,39,28,105,58,33,71
64536201,38,39,29,111,62,33,70
64541001,38,38,28,112,69,35,71
64545788,38,38,28,112,81,36,70
64550562,38,38,28,123,80,36,70
64555356,38,38,28,118,74,35,69
64560144,38,38,28,120,69,35,69
64564930,38,38,29,132,64,34,69
64569716,38,37,28,143,60,34,69
64574504,38,37,29,143,56,34,69
64579291,38,37,29,141,54,33,69
64584077,38,37,29,154,54,33,68
64588864,38,37,28,166,52,33,68
64593652,38,37,29,174,50,33,68
64598439,38,37,28,198,49,32,68
64603225,38,37,29,202,49,33,68
64608014,38,37,28,211,46,32,67
64612802,38,37,29,210,44,31,67
64617590,37,37,29,220,42,32,66
64622377,38,37,28,210,39,32,65
64627165,38,37,29,210,37,31,65
64631952,38,36,29,235,36,31,64
64636738,38,37,29,326,35,31,64
64641525,37,37,29,374,35,31,64
64646312,38,37,28,441,34,31,63
64651098,38,36,29,417,38,32,63
64655885,38,37,28,401,39,31,64
64660672,38,36,28,390,37,31,64
64665459,38,36,29,366,36,31,65
64670247,38,36,29,348,36,31,66
64675071,38,36,29,326,35,30,68
64679868,38,36,28,304,34,30,69
64684655,37,36,28,284,32,30,70
64689442,38,36,28,264,31,30,72
64694272,38,36,29,247,30,30,74
64699059,38,36,28,227,29,30,76
64703829,38,36,29,208,28,30,79
64708617,38,36,29,204,28,29,81
64713404,38,36,28,198,26,29,84
64718191,38,36,29,190,26,30,87
64722978,38,36,28,178,26,30,90
64727766,39,36,29,175,25,32,93
64732553,38,36,28,173,25,31,95
64737340,38,36,29,171,25,31,97
64742127,38,37,28,162,24,33,97
64746915,38,36,28,150,24,33,97
64751702,38,36,29,139,24,33,97
64756489,38,36,29,129,24,33,95
64761276,38,36,28,121,24,33,93
64766063,38,36,29,113,23,33,89
64770850,38,37,29,106,23,35,87
64775637,38,36,29,100,23,34,85
64780425,38,36,28,96,23,34,84
64785237,38,36,28,90,22,33,82
64790049,38,36,29,87,22,33,81
64794861,38,36,29,83,22,34,80
64799674,38,36,29,79,22,34,79
64804487,38,36,29,77,22,33,78
64809299,41,36,29,74,22,33,77
64814112,41,36,29,74,22,33,77
64818924,42,36,29,72,22,32,76
64823737,48,36,29,71,22,32,76
64828549,48,36,29,69,21,32,74
64833361,53,36,30,68,21,32,73
64838173,61,36,29,65,21,32,72
64842986,64,36,29,64,21,31,71
64847798,73,36,29,62,21,31,71
64852610,71,36,29,61,26,32,72
64857422,68,36,29,60,28,32,72
64862037,66,36,29,58,28,32,72
64866766,64,37,29,57,27,32,72
64871496,62,36,29,56,28,32,72
64876225,60,36,29,55,28,31,73
64880955,58,36,29,54,28,31,74
64885685,56,36,29,53,27,30,76
64890414,54,36,29,53,26,30,79
64895143,53,36,29,53,26,30,81
64899874,51,36,29,52,26,31,82
64910273,49,36,29,52,25,31,83
64914928,48,36,29,51,24,31,83
64919599,47,36,29,50,24,31,84
64924271,47,36,29,50,24,31,83
64928943,46,36,29,51,25,31,83
64933616,45,36,29,53,24,31,82
64938289,44,37,29,52,24,31,82
64942962,44,36,29,52,24,31,81
64946678,43,36,29,51,24,31,80
64951510,43,36,29,52,24,31,81
64956342,42,36,29,53,24,31,83
64961175,42,36,29,54,24,31,84
64966007,41,36,28,56,24,31,84
64970840,42,36,28,54,23,32,82
64975672,42,36,29,54,24,32,81
64980504,41,36,28,53,23,33,80
64985337,40,36,29,53,24,33,79
64990170,40,36,29,52,23,33,78
64995003,40,36,29,53,24,33,77
64999836,38,36,29,53,25,32,76
65004669,39,36,29,53,25,33,75
65009502,39,36,28,52,24,32,74
65014335,39,36,29,52,24,32,74
65019169,40,36,28,52,23,32,73
65023920,39,36,29,52,23,32,73
65028837,39,36,29,52,23,31,72
65033750,39,36,29,51,23,31,71
65038663,39,36,28,50,22,31,71
65043596,39,36,29,50,22,31,70
65048509,39,36,29,50,22,31,70
65053437,38,36,28,50,22,31,70
65058350,38,36,29,49,22,31,70
65063264,38,36,28,49,22,30,70
65068177,38,36,28,48,22,30,69
65073091,38,36,29,48,22,31,69
65078005,38,36,29,48,21,30,69
65082920,38,36,28,48,22,30,69
65087834,38,36,29,47,21,30,72
65092748,38,36,29,47,21,30,73
65097662,38,36,29,47,23,31,73
65102578,38,36,28,47,29,31,84
65107355,38,41,28,47,30,32,82
65112261,38,42,28,47,34,31,85
65117170,38,45,28,47,33,31,92
65122078,38,44,28,47,34,31,93
65126984,38,43,28,47,38,30,91
65131891,38,45,29,47,39,31,93
65136800,38,44,29,47,37,31,106
65141708,39,45,28,47,35,31,107
65146614,39,44,28,47,34,31,113
65151523,39,44,28,47,32,31,119
65156432,38,42,28,48,48,30,128
65161340,39,42,29,52,66,32,137
65166248,40,42,28,53,92,32,156
65171157,38,42,29,52,96,32,158
65176066,38,45,28,52,97,31,162
65180974,39,49,28,51,95,32,153
65185738,40,61,28,51,88,32,163
65190646,44,62,29,51,82,32,170
65195554,44,60,29,51,76,33,163
65200462,43,57,28,50,71,32,156
65205371,42,55,28,51,68,32,149
65210298,42,60,29,52,63,32,144
65215206,42,64,28,52,59,32,141
65220115,42,74,28,53,55,32,140
65225025,41,71,28,52,52,32,137
65229934,41,70,29,51,49,31,136
65234844,41,69,29,56,46,31,131
65239753,41,70,28,56,45,30,125
65244678,41,67,29,56,43,31,121
65249603,45,66,28,56,41,30,117
65254512,48,84,28,56,39,34,121
65259421,49,95,28,56,43,35,118
65264202,48,109,28,55,45,35,114
65269110,47,113,29,58,49,37,111
65274017,51,107,28,66,49,39,112
65278925,52,101,29,65,56,42,125
65283832,50,98,28,66,80,45,127
65288740,50,97,28,65,84,47,128
65293669,53,103,29,63,104,46,125
65298575,55,120,29,63,117,44,127
65303509,53,140,28,62,115,44,127
65308415,55,154,29,61,114,42,128
65313322,65,153,29,66,117,42,123
65318229,67,154,28,70,117,41,119
65323150,64,151,29,72,146,42,115
65328056,65,153,29,70,213,47,111
65332963,66,150,29,70,254,49,108
65337830,64,143,29,68,316,52,106
65342737,63,137,28,69,301,56,105
65347645,64,127,28,78,293,56,104
65352552,64,126,28,74,267,54,103
65357459,67,180,28,74,251,51,112
65362366,88,217,28,75,231,49,122
65367273,93,268,29,76,222,49,128
65372180,97,280,28,73,208,50,133
65377087,100,271,28,71,290,52,137
65381993,102,251,28,69,294,54,143
65386899,96,230,28,69,286,57,156
65391806,90,215,28,67,322,63,171
65396714,85,205,29,66,336,68,186
65401621,80,191,28,64,310,65,200
65406528,79,175,29,62,284,61,212
65411413,76,168,29,61,264,57,222
65416347,72,189,28,59,243,56,230
65421280,76,204,28,59,222,53,236
65426213,84,191,28,58,203,51,235
65431148,79,181,29,57,186,49,234
65436082,75,166,29,57,171,48,233
65441015,71,153,29,58,159,46,230
65445949,68,141,28,60,176,45,229
65450885,65,130,28,69,195,49,227
65455819,62,120,28,70,202,49,226
65460752,59,111,28,69,221,50,226
65465687,58,104,28,67,233,54,228
65470623,55,97,28,66,215,53,230
65475557,53,90,29,64,200,50,233
65480491,52,85,28,90,189,49,238
65485268,50,80,28,110,179,49,244
65490121,49,75,28,136,173,47,252
65494973,48,71,28,138,182,47,259
65499825,47,69,29,138,175,47,266
65504679,46,65,28,132,179,46,274
65509532,45,61,28,127,168,45,280
65514385,44,59,28,119,153,43,287
65519238,44,57,28,112,139,42,290
65524091,43,55,29,106,128,41,294
65528945,43,53,28,104,117,40,296
65533798,42,52,29,108,113,39,296
65538654,42,50,29,102,106,37,296
65543511,41,51,28,97,97,37,293
65548368,41,50,28,93,93,36,290
65553224,41,49,28,90,124,36,286
65558261,40,48,28,85,150,37,282
65563187,40,46,28,81,177,37,274
65568106,40,45,26,80,166,36,268
65573025,40,43,27,78,159,36,264
65577943,39,44,27,74,155,35,265
65582862,39,43,27,72,156,36,263
65587780,39,42,27,72,142,36,263
65592699,39,42,28,72,131,35,262
65597617,39,41,28,81,123,34,262
65602535,39,40,28,89,116,34,261
65607453,39,40,28,92,108,34,260
65612372,39,40,28,92,100,34,258
65617290,39,39,28,98,127,35,257
65622208,39,39,28,104,158,36,248
65627127,38,39,28,101,179,36,245
65632046,38,38,28,99,165,35,244
65636847,38,38,27,96,151,34,242
65641848,38,38,28,110,138,35,243
65646849,38,38,29,136,126,34,241
65651850,38,37,28,133,116,34,240
65656851,38,37,29,133,107,33,239
65661861,38,37,29,129,98,33,237
65666862,38,37,29,129,90,33,236
65671864,38,37,29,125,82,33,236
65676874,38,38,29,118,76,32,236
65681875,38,37,29,113,70,32,238
65686898,38,37,29,110,66,32,240
65691938,38,37,29,110,61,32,244
65696993,38,37,29,112,57,31,249
65701999,38,37,29,209,53,32,255
65707024,38,36,29,260,52,31,261
65712058,38,36,29,276,49,31,268
65717052,38,36,29,279,45,30,275
65722048,38,36,29,270,43,31,281
65727081,38,36,29,256,41,30,286
65732090,38,36,29,235,39,30,291
65737096,38,36,29,216,37,30,294
65742096,38,36,29,201,35,30,296
65747101,38,36,29,188,34,30,298
65752097,38,36,29,180,33,30,301
65757091,38,36,28,194,32,30,304
65762084,38,36,29,199,30,30,305
65767078,38,36,29,190,30,30,308
65772072,38,36,29,188,29,30,310
65777081,38,36,28,188,28,31,312
65782074,38,36,28,200,28,29,315
65787068,38,36,28,198,27,30,318
65791937,38,36,28,186,26,28,321
65796930,38,36,28,175,26,30,324
65801923,38,36,29,163,25,30,326
65806922,38,36,29,152,25,29,326
65811916,38,36,28,140,25,31,326
65816909,38,37,28,133,24,31,325
65821902,38,36,28,129,24,31,320
65826899,38,36,28,124,24,32,316
65831893,38,37,29,117,23,32,311
65836887,38,36,29,109,23,33,305
65841881,38,37,28,102,23,34,298
65846878,38,37,29,96,23,34,290
65851872,38,37,29,89,23,35,282
65856865,38,36,28,85,22,34,272
65861861,38,36,29,82,22,34,261
65866857,38,36,29,79,22,35,250
65871848,38,36,29,76,22,34,237
65876841,38,37,29,75,22,34,224
65881835,38,38,29,80,22,33,212
65886829,39,38,29,80,22,33,202
65891823,44,38,29,77,22,33,192
65896816,44,38,29,75,21,32,183
65901810,48,38,29,77,21,32,177
65906803,52,38,29,76,21,32,173
65911796,59,38,29,74,21,32,170
65916790,63,38,29,73,21,32,169
65921784,77,38,29,70,21,33,169
65926777,78,38,29,68,21,33,170
65931770,75,38,29,66,20,33,172
65936782,72,39,29,64,21,33,173
65941775,82,38,29,61,21,33,176
65946751,81,38,30,60,21,33,178
65951745,76,39,29,58,20,33,183
65956739,81,40,29,57,21,32,188
65961737,78,40,29,56,21,32,194
65966731,76,41,29,55,21,32,198
65971725,72,40,30,54,21,31,200
65976719,69,39,29,53,20,32,199
65981714,65,39,29,53,21,31,198
65986708,63,38,29,53,22,32,197
65991702,60,38,29,54,22,32,196
65996696,58,38,28,54,23,32,196
66001691,56,38,29,55,26,32,195
66006685,55,38,29,56,26,32,195
66011679,57,38,28,55,25,32,192
66016674,57,38,29,57,25,32,188
66021668,57,38,29,56,25,31,183
66026662,55,38,29,56,25,31,179
66031696,53,38,30,54,25,34,174
66036729,51,38,29,55,25,34,168
66041762,50,38,29,56,25,35,163
66046795,49,37,28,55,27,34,160
66051829,48,37,28,54,28,34,158
66056862,46,37,29,55,29,34,158
66061896,46,37,28,55,31,33,156
66066929,44,37,28,55,34,33,151
66071963,45,37,28,54,35,33,145
66076996,43,36,28,54,35,32,141
66082030,43,37,29,53,33,32,136
66087063,42,37,28,53,33,32,132
66092096,42,36,29,52,32,32,128
66097129,41,37,28,52,31,32,125
66102162,41,36,28,53,30,32,123
66107094,41,36,28,53,29,32,122
66112042,40,36,29,53,29,32,123
66116990,40,36,28,54,28,32,124
66121938,40,36,28,53,27,32,125
66126886,40,36,28,53,26,31,127
66131835,40,36,29,52,26,31,128
66136783,39,36,29,53,25,31,131
66141732,39,36,29,52,25,31,133
66146681,39,36,28,52,24,31,136
66151630,39,37,28,51,24,31,140
66156578,38,36,29,51,24,31,142
66161527,39,36,29,50,23,31,146
66166477,38,36,29,50,24,30,150
66177094,38,36,29,49,24,31,157
66181966,39,37,28,49,24,31,163
66186854,39,37,28,49,23,31,167
66191923,38,36,28,49,23,31,176
66196884,38,36,28,49,23,31,174
66201843,38,36,29,48,23,30,190
66206801,38,38,28,48,22,30,190
66211760,38,41,28,49,22,30,189
66216747,38,43,28,48,22,30,189
66221750,38,48,29,49,22,30,192
66226753,38,46,28,49,22,30,210
66231755,38,46,28,50,22,30,212
66236758,38,45,28,50,22,30,214
66241761,38,45,28,50,22,31,224
66246764,38,44,29,49,22,30,231
66251767,38,45,28,49,22,30,251
66256770,38,45,28,50,22,30,250
66261774,39,44,27,51,22,31,238
66266778,39,43,28,52,21,31,228
66271763,40,45,28,52,23,31,241
66276848,39,44,29,53,25,32,246
66281933,40,48,29,54,26,31,236
66287018,40,51,28,55,26,31,223
66292103,40,53,29,55,25,31,212
66297189,40,57,28,53,25,31,202
66302274,39,71,28,53,24,31,197
66307360,44,68,28,52,25,31,198
66312450,43,68,28,52,24,31,195
66317560,42,67,28,52,24,31,195
66322645,45,65,28,52,31,31,192
66327730,45,71,28,51,40,31,184
66332815,48,69,28,52,42,31,176
66337900,47,81,29,52,40,31,169
66342987,46,86,28,53,38,30,162
66348072,52,94,29,55,40,30,155
66353157,52,94,28,56,47,30,148
66358228,51,89,28,55,47,32,145
66363298,49,87,28,55,45,37,149
66368368,52,102,29,54,63,40,155
66373440,51,106,28,54,62,39,169
66378511,51,106,28,57,77,40,163
66383581,53,118,29,56,93,44,156
66388651,51,128,28,54,93,52,151
66393724,51,130,28,54,104,56,149
66398795,56,146,28,53,125,53,145
66403865,56,148,28,53,124,52,138
66408936,55,142,28,60,146,51,132
66414009,54,138,28,59,166,52,130
66419081,53,128,29,58,202,54,141
66424151,57,123,29,59,213,62,165
66429224,57,126,28,61,240,61,174
66434164,56,128,28,60,242,65,179
66439235,71,160,28,60,248,63,208
66444306,85,189,29,59,236,68,206
66449378,82,181,28,60,214,72,205
66454450,79,172,28,60,202,69,206
66459521,75,167,28,59,189,64,211
66464593,71,161,29,59,178,61,218
66469666,68,148,28,58,169,58,226
66474738,67,138,29,58,161,57,233
66479810,68,140,28,57,175,54,236
66484882,66,138,28,58,185,53,234
66489972,64,127,28,58,216,56,229
66495058,73,131,29,57,258,62,223
66500130,84,130,29,56,258,65,213
66505204,86,134,29,55,243,62,202
66510200,82,142,28,55,273,62,192
66515300,78,141,29,57,280,61,183
66520399,76,144,29,60,284,61,174
66525499,72,139,29,64,257,58,166
66530599,69,131,28,62,237,54,159
66535699,71,132,28,63,223,53,152
66540799,70,127,29,62,240,54,145
66545906,66,118,28,60,236,53,140
66551006,65,109,29,62,218,50,133
66556106,62,101,29,61,214,49,127
66561206,59,94,28,62,210,50,123
66566306,57,88,28,70,217,48,119
66571406,55,82,29,77,204,47,115
66576506,53,77,28,75,210,49,113
66581620,52,73,28,73,210,49,111
66586664,50,69,28,71,202,47,110
66591763,49,66,29,73,221,45,110
66596864,48,62,28,77,236,47,112
66601969,46,59,28,74,217,47,115
66607069,46,57,28,71,197,45,117
66612169,45,54,28,69,181,44,120
66617269,43,54,28,67,169,44,122
66622368,43,52,28,65,158,42,123
66627468,43,50,28,64,162,41,121
66632568,42,49,28,64,162,41,120
66637668,42,48,29,62,148,40,117
66642767,41,47,28,64,136,40,115
66647867,41,47,28,68,136,40,111
66652967,41,45,28,66,159,44,108
66658067,40,44,28,65,152,43,105
66663167,40,43,27,63,146,42,101
66668111,40,44,27,67,137,41,98
66673202,40,42,27,67,130,40,96
66678294,40,41,28,69,118,38,94
66683392,39,41,28,77,108,38,92
66688484,39,40,28,85,99,37,91
66693576,39,40,28,85,90,37,90
66698668,39,40,29,87,83,36,88
66703760,39,39,28,86,99,36,86
66708852,39,39,28,86,120,39,85
66713943,38,39,28,82,157,38,84
66719036,38,38,28,80,155,38,82
66724129,38,38,28,83,141,37,80
66729221,38,38,28,88,132,36,78
66734313,38,38,29,90,131,35,75
66739407,38,38,29,86,126,35,74
66744500,39,37,29,88,115,34,72
66749370,38,37,28,92,105,34,70
66754379,38,37,29,102,100,33,70
66759389,38,37,28,106,92,33,69
66764397,38,37,29,110,90,33,69
66769404,38,37,28,126,84,34,69
66774414,38,37,29,142,84,33,70
66779423,38,37,29,141,94,33,73
66784432,38,37,29,142,100,33,76
66789440,38,38,28,135,96,32,80
66794450,38,37,29,155,90,32,85
66799460,38,36,29,168,83,32,89
66804468,38,36,28,193,77,32,95
66809478,38,36,28,191,71,32,101
66814488,38,36,28,201,66,31,107
66819498,38,36,29,202,61,31,113
66824508,37,36,29,198,57,32,119
66829045,38,36,29,192,54,31,124
66833623,38,36,29,184,51,31,132
66838231,38,36,29,173,48,31,138
66842839,38,36,28,167,46,31,145
66847446,38,36,28,162,43,31,152
66852054,39,36,29,151,41,31,158
66856662,38,36,29,147,39,30,165
66861270,38,36,29,154,38,31,173
66865878,38,36,29,156,36,30,180
66870486,39,36,29,163,35,30,187
66875094,38,36,29,158,33,30,194
66879702,38,36,29,149,32,30,202
66884311,37,36,29,139,31,30,209
66888919,38,36,29,130,30,30,215
66893527,38,36,29,121,30,31,222
66898071,38,36,29,114,28,33,228
66902760,38,36,29,107,28,34,233
66907449,38,36,29,107,27,33,235
66912137,37,36,29,107,26,33,237
66916826,38,36,28,105,27,38,237
66921515,38,36,28,101,26,41,236
66926204,38,36,28,97,26,40,234
66930892,38,36,29,92,25,39,230
66935581,38,36,28,87,25,38,227
66940269,38,36,29,83,25,40,223
66944958,38,36,29,79,24,41,219
66949692,38,36,29,76,24,40,214
66954381,38,36,29,73,24,41,209
66959073,38,36,29,70,24,40,203
66963762,38,36,29,69,24,40,196
66968474,47,35,29,68,24,38,189
66973063,70,36,29,67,23,38,181
66977780,71,36,28,66,23,37,172
66982506,78,36,29,66,23,37,164
66987252,75,37,29,65,23,36,157
66991962,72,37,29,65,23,35,151
66996692,70,37,29,64,23,35,145
67001445,71,37,28,62,23,35,140
67006155,78,37,29,61,22,35,135
67010866,74,37,29,60,22,36,130
67015576,79,37,29,58,22,35,126
67020286,83,37,29,57,22,34,124
67025002,97,37,29,56,22,34,122
67029712,101,37,29,55,22,34,122
67034458,100,36,29,54,22,33,122
67039187,95,36,29,54,27,33,123
67043898,92,37,28,53,27,33,125
67048470,87,37,29,53,26,33,127
67053180,86,37,29,52,27,32,130
67057890,82,38,29,52,29,32,134
67062611,80,38,29,53,31,32,139
67067322,76,38,29,53,32,32,143
67072033,73,38,29,52,31,32,149
67076743,70,38,29,53,30,32,154
67081453,67,38,29,54,29,32,159
67086166,64,38,29,56,29,32,164
67090876,62,37,29,59,30,31,169
67095586,59,37,29,57,33,32,172
67100314,57,37,29,57,36,31,175
67105026,55,37,29,56,35,32,177
67109748,53,37,28,58,33,32,176
67114458,52,37,29,59,32,31,173
67119171,51,37,29,58,31,31,169
67123749,49,37,29,58,30,30,161
67128443,48,37,28,57,29,31,155
67133139,47,37,28,56,28,32,149
67137835,46,37,29,57,28,33,143
67142532,46,37,30,56,27,33,138
67147226,45,36,29,56,26,32,133
67151923,44,37,29,56,27,32,129
67156620,43,37,29,55,25,32,124
67161316,43,36,29,54,25,32,120
67166011,42,36,29,53,24,32,116
67170708,42,37,29,54,24,31,114
67175405,41,37,29,54,24,32,110
67180101,41,37,29,54,24,31,107
67184798,41,36,28,53,24,30,104
67189494,41,36,29,53,23,31,102
67194191,40,37,28,52,23,31,99
67198784,40,35,29,52,23,31,96
67203480,40,36,29,52,22,30,96
67208177,40,36,29,52,22,31,94
67212873,40,36,28,52,23,31,94
67217570,39,36,29,52,22,30,93
67222267,40,36,28,51,22,30,92
67226964,39,36,28,50,22,30,91
67231688,39,36,29,51,22,30,90
67236385,39,36,29,50,22,30,90
67241081,39,36,29,50,22,30,91
67245778,38,36,29,49,22,30,92
67250474,38,36,28,48,22,30,92
67255170,38,36,29,49,22,30,93
67259867,38,36,28,48,21,30,96
67264563,38,36,29,48,21,30,95
67269260,38,36,28,48,22,30,99
67273958,38,40,29,47,22,30,99
67278644,38,41,30,47,22,30,105
67283331,38,46,28,47,21,30,117
67288017,38,45,29,48,22,29,128
67292703,38,45,28,47,21,30,136
67297390,38,44,29,48,21,31,140
67302076,37,45,28,48,21,30,163
67306772,38,46,29,48,21,30,187
67311458,38,45,29,47,23,30,185
67316145,38,44,29,47,25,30,194
67320831,38,43,28,47,28,30,201
67325517,37,44,29,47,32,30,203
67330207,37,43,29,47,32,32,207
67334893,38,43,28,47,32,32,198
67339579,39,42,28,47,36,33,192
67344275,39,43,29,47,38,32,184
67348862,39,46,28,48,39,32,180
67353465,39,50,28,47,38,32,172
67358068,40,51,29,48,36,32,165
67362671,40,51,29,47,35,32,158
67367274,42,63,29,48,33,32,151
67371877,48,62,28,50,32,32,148
67376480,48,63,28,50,32,32,144
67381083,47,70,28,52,32,32,143
67385687,47,92,28,54,31,34,146
67390290,50,106,29,53,30,36,148
67394893,50,106,29,54,32,36,145
67399497,52,103,29,58,40,37,139
67404102,61,120,29,57,50,40,133
67408706,70,116,29,57,54,41,128
67413309,69,117,28,57,57,42,123
67417914,66,130,28,57,57,43,119
67428378,62,116,29,58,75,53,112
67432980,60,112,28,60,87,52,109
67437630,58,105,28,62,92,50,109
67442282,56,99,29,61,99,48,120
67446933,54,105,28,63,95,46,129
67451586,56,108,28,67,102,46,139
67456239,61,116,28,70,109,46,142
67460892,66,120,29,68,117,45,144
67465551,65,117,28,72,132,44,145
67470248,63,112,28,74,133,43,142
67474944,65,106,29,72,130,42,135
67479641,66,106,28,73,127,44,131
67484338,64,109,29,72,143,43,126
67489034,78,113,28,74,155,42,122
67493731,78,105,28,85,159,46,118
67498408,74,98,28,92,158,44,116
67503184,71,93,28,141,148,43,113
67507961,68,88,28,181,142,42,118
67512738,64,84,29,299,134,40,120
67517515,62,80,29,406,129,40,123
67522292,61,96,28,386,132,38,133
67527068,66,109,28,379,137,38,146
67531845,66,143,29,378,127,37,152
67536623,73,149,29,398,119,36,158
67541400,73,140,28,372,110,36,166
67546176,72,145,28,340,100,35,172
67550953,69,145,29,316,122,39,177
67555734,66,138,28,288,147,43,178
67560511,63,129,28,267,183,45,173
67565301,60,120,28,245,222,51,170
67570043,58,111,28,234,217,50,165
67574820,57,106,29,226,198,48,158
67579597,60,106,29,242,182,46,152
67584375,59,107,28,309,168,44,146
67589153,65,131,29,298,156,43,141
67593930,64,149,28,293,144,42,136
67598709,64,139,28,302,134,41,131
67603487,61,129,29,293,130,40,126
67608265,59,119,29,279,130,40,122
67613043,57,111,29,264,131,39,120
67617823,55,103,28,245,126,37,126
67622601,53,97,28,226,115,37,129
67627379,53,91,28,213,106,36,125
67632158,53,98,28,209,101,35,122
67636938,52,122,28,210,94,35,122
67641610,60,144,28,200,90,35,129
67646387,59,154,28,185,82,36,130
67651167,58,148,28,178,77,36,131
67655946,62,147,29,169,76,35,131
67660724,62,141,29,163,74,35,129
67665502,59,131,28,157,69,34,126
67670281,57,124,28,148,65,34,124
67675060,55,115,28,140,62,34,122
67679837,53,108,29,134,59,33,119
67684617,52,101,28,128,55,33,115
67689396,50,94,28,127,53,32,112
67694175,49,88,28,132,50,32,110
67698953,48,83,29,146,47,32,107
67703732,47,78,29,159,44,32,105
67708511,46,76,28,183,43,31,104
67713249,45,81,28,185,43,31,100
67718028,45,88,28,173,41,31,97
67722807,44,92,28,162,43,31,93
67727586,44,88,28,154,52,31,90
67732365,53,88,28,144,58,31,88
67737145,61,86,28,137,57,31,86
67741925,67,81,28,131,63,31,85
67746704,65,77,28,124,60,30,84
67751484,61,73,28,117,68,31,82
67756264,59,69,28,115,73,31,81
67761044,57,66,28,113,72,30,80
67765823,55,63,27,115,66,30,79
67770603,53,60,28,118,62,30,78
67775383,52,61,28,118,58,30,77
67780163,51,59,27,114,62,30,77
67784943,51,60,28,109,58,30,76
67789656,50,60,28,108,56,30,75
67794451,49,68,27,102,52,30,75
67799231,50,78,28,97,50,30,73
67804011,49,76,27,94,48,30,73
67808799,48,72,28,95,48,31,73
67813578,47,68,28,94,54,31,72
67818357,47,65,28,94,55,31,72
67823136,46,62,28,94,56,31,71
67827915,46,59,28,111,54,31,71
67832695,46,57,28,123,51,31,71
67837484,61,56,28,136,48,31,70
67842264,74,55,28,154,45,31,70
67847043,99,54,28,156,45,31,70
67851822,99,57,28,146,44,32,69
67856601,94,68,28,139,43,32,69
67861380,88,77,28,133,41,31,69
67866141,84,85,28,125,39,31,68
67870920,81,92,28,121,38,31,68
67875700,76,86,28,114,36,31,68
67880480,72,82,28,107,35,31,68
67885259,69,77,28,101,36,31,68
67890039,67,72,28,95,37,30,67
67894818,64,69,29,94,41,31,66
67899597,62,65,28,96,43,30,66
67904377,59,63,28,100,46,32,65
67909156,57,60,28,109,45,31,65
67913936,55,58,29,103,42,32,65
67918716,53,59,29,101,41,31,66
67923497,52,65,29,103,39,31,66
67928280,53,78,29,101,37,31,67
67933060,57,76,29,97,36,31,68
67937840,58,72,29,95,34,31,68
67942522,61,68,29,90,34,31,69
67947220,61,65,29,86,33,31,70
67951918,68,62,29,82,38,31,72
67956617,66,60,29,79,38,34,73
67961317,71,57,29,78,38,33,74
67966015,68,55,29,77,37,33,75
67970713,65,53,29,78,36,33,76
67975413,62,52,29,77,34,32,76
67980114,60,50,29,75,33,32,75
67984812,58,49,29,72,32,32,74
67989511,57,47,29,75,31,32,74
67994211,56,46,29,80,30,32,71
67998911,57,45,29,81,30,32,70
68003609,55,44,29,77,38,34,69
68008310,54,44,29,74,37,34,69
68013010,54,43,29,71,38,35,69
68017709,52,42,28,68,45,35,68
68025734,50,42,29,66,53,36,68
68030944,49,41,29,65,52,35,68
68035952,50,41,29,64,54,36,68
68040950,52,40,29,67,51,35,68
68045951,50,40,29,65,48,35,68
68050951,50,40,29,64,46,34,66
68055952,49,40,29,62,44,36,67
68060951,48,39,29,59,48,38,68
68065951,47,39,29,59,57,39,68
68070951,45,39,29,58,67,38,69
68075951,45,38,29,56,69,37,68
68080951,44,38,29,56,75,37,69
68085951,44,38,29,56,71,37,71
68090951,43,37,29,55,69,36,74
68095952,42,38,29,54,66,36,77
68100952,42,38,29,53,64,35,79
68105935,42,36,29,53,62,36,81
68111017,41,37,29,52,65,34,84
68116100,41,37,29,52,64,36,86
68121183,40,37,28,51,61,36,87
68126266,40,37,29,51,57,36,88
68131349,40,37,29,50,53,35,89
68136432,40,37,29,53,49,36,89
68141514,40,37,29,57,47,34,88
68146597,39,37,29,58,44,34,86
68151680,39,37,29,57,42,33,84
68156763,39,37,28,56,40,34,80
68161852,39,36,29,55,38,34,79
68166935,39,37,29,55,36,33,78
68172017,39,37,29,54,35,33,78
68177100,38,37,29,53,33,33,77
68182195,39,36,29,52,32,33,76
68187345,38,37,29,53,31,33,75
68192375,38,37,29,52,30,32,75
68197466,38,37,29,51,30,32,74
68202581,39,38,29,53,36,32,73
68207710,38,38,28,53,39,32,73
68212802,38,37,28,53,38,32,72
68217932,39,40,29,53,36,32,73
68223041,41,40,29,52,35,34,74
68228151,50,40,28,52,33,34,75
68233235,51,40,29,51,32,36,75
68238329,51,40,28,50,31,37,76
68243412,57,41,29,50,30,39,76
68248496,60,41,28,50,29,40,77
68253572,69,41,28,52,29,39,76
68258665,70,42,28,61,29,38,75
68263741,71,47,28,81,27,38,74
68268817,72,50,29,84,26,38,74
68273893,69,49,28,82,26,37,73
68278083,66,48,28,82,27,37,72
68283158,65,47,29,96,26,36,70
68288233,69,47,28,96,26,35,70
68293308,82,46,28,111,26,34,70
68298385,99,50,28,105,26,34,69
68303460,95,50,29,99,26,33,69
68308534,99,49,29,94,25,33,69
68313615,95,48,29,90,26,32,69
68318693,89,46,28,88,27,34,69
68323767,109,46,28,86,27,36,68
68328842,167,46,28,94,30,37,67
68333919,163,51,28,101,29,36,69
68338997,155,57,28,97,30,36,69
68344072,145,78,28,91,30,35,71
68349147,144,94,29,87,30,34,74
68354226,152,90,29,82,34,34,74
68359175,153,95,28,78,37,34,75
68364247,148,90,28,76,39,35,74
68369322,136,85,29,74,38,34,74
68374399,127,79,29,75,36,36,74
68379475,119,75,28,75,37,37,74
68384549,128,73,28,86,37,38,74
68389624,119,69,29,85,36,39,73
68394700,111,68,29,86,36,40,73
68399776,103,64,29,85,44,40,71
68404851,100,64,28,82,49,38,70
68409926,100,70,28,80,50,41,69
68415002,97,83,27,77,47,41,68
68420078,91,100,29,76,49,40,68
68425154,86,95,29,74,47,38,68
68430231,81,89,28,73,44,38,68
68435307,77,84,29,70,42,38,67
68440280,72,78,28,68,40,39,68
68445357,69,74,28,65,39,39,67
68450434,65,70,28,64,37,38,67
68455510,62,68,29,61,37,37,67
68460588,60,66,29,60,41,38,67
68465683,58,72,28,58,48,37,67
68470770,61,78,28,57,69,37,67
68475847,62,87,28,57,66,37,66
68480923,62,86,28,56,65,38,71
68486000,63,84,28,58,60,39,80
68491077,61,79,28,58,59,39,82
68496154,58,73,29,60,69,41,82
68501231,57,70,28,68,89,44,82
68506308,55,66,29,71,84,44,85
68511400,52,63,28,69,83,44,102
68516477,50,60,28,66,77,44,112
68521535,49,58,28,64,72,42,113
68526637,47,56,28,62,68,41,110
68531739,52,78,28,60,70,40,110
68536841,58,88,28,59,67,40,115
68541942,59,105,28,57,74,39,160
68547045,59,100,28,57,80,41,159
68552147,56,95,28,56,77,41,171
68557249,54,92,28,54,71,40,169
68562350,53,87,28,53,66,39,163
68567452,51,82,28,53,65,38,159
68572553,50,77,28,56,65,40,172
68577655,48,72,28,60,68,42,184
68582757,47,69,28,64,79,41,178
68587859,46,65,29,69,77,42,197
68592960,45,66,28,72,90,44,215
68598062,45,63,28,70,88,45,213
68603003,44,61,28,67,83,46,208
68608019,45,58,28,66,79,44,201
68613036,44,59,28,68,73,43,193
68618053,47,57,29,71,69,42,184
68623069,47,55,29,69,64,41,192
68628086,46,55,29,66,63,41,217
68633103,45,54,29,64,60,41,229
68638119,44,52,28,62,59,40,224
68643138,44,50,29,61,59,39,221
68648154,43,49,28,59,55,38,208
68653171,43,48,28,58,51,37,202
68658188,42,46,29,56,50,36,201
68663208,42,51,28,55,49,37,194
68668224,41,70,29,54,49,38,184
68673241,50,100,28,53,47,37,175
68678259,68,118,29,52,45,37,167
68682860,70,115,29,52,44,37,160
68693110,63,99,28,55,41,37,145
68697648,61,93,28,55,39,38,140
68702202,59,88,29,54,37,37,133
68706758,57,83,29,53,36,36,129
68711313,55,78,29,53,38,37,125
68715870,53,74,29,52,40,36,121
68720426,52,70,28,52,40,36,117
68724982,50,67,29,53,42,36,114
68729567,49,65,28,55,42,37,110
68734167,48,64,28,54,40,36,108
68738768,47,62,28,53,45,38,105
68743368,47,61,28,53,56,38,102
68747968,47,72,29,55,58,38,100
68752568,56,91,29,64,55,37,97
68757169,67,89,28,66,53,37,96
68761713,64,84,28,64,54,37,93
68766392,62,80,28,62,55,36,92
68771072,58,76,29,75,54,36,106
68775753,57,72,28,116,50,35,124
68780433,55,69,28,182,48,35,121
68785113,53,65,28,201,45,35,119
68789793,52,61,29,195,43,34,116
68794473,50,60,29,184,40,34,111
68799153,49,58,29,178,39,33,108
68803834,48,56,29,168,37,33,105
68808514,47,54,28,155,40,34,102
68813195,46,54,29,144,39,34,100
68817886,46,54,28,134,37,33,97
68822579,46,53,29,128,36,33,95
68827259,45,51,28,120,35,33,93
68831938,45,50,29,113,35,32,97
68836555,44,48,29,107,33,35,96
68841228,43,47,28,101,33,35,95
68845902,43,46,29,97,31,36,108
68850576,42,45,28,96,30,35,114
68855249,42,44,28,92,29,34,112
68859924,42,44,28,88,29,34,109
68864598,41,43,29,85,28,34,105
68869272,41,55,29,88,27,34,103
68873947,59,72,29,90,27,33,102
68878622,78,80,29,86,26,34,100
68883295,81,76,28,83,25,33,97
68887968,77,73,29,82,25,33,95
68892644,73,69,28,102,25,35,93
68897319,70,66,29,106,25,34,91
68901992,66,63,28,125,25,34,89
68906667,64,60,28,120,24,34,87
68911256,61,58,29,114,24,34,87
68915930,59,56,29,117,24,34,85
68920603,58,54,29,126,25,36,83
68925278,98,53,28,135,32,40,82
68929953,137,54,29,126,33,41,81
68934627,132,54,29,121,36,41,80
68939301,154,66,29,116,42,44,80
68943976,166,98,29,110,42,44,81
68948652,186,127,28,105,42,43,80
68953326,179,119,29,102,41,43,79
68958002,166,112,29,97,40,42,78
68962678,153,104,29,104,38,42,77
68967353,142,97,29,106,37,41,77
68972029,132,91,28,107,35,43,76
68976704,124,86,29,113,40,45,75
68981380,116,81,29,112,42,50,74
68985927,109,77,28,107,42,52,74
68990599,103,73,28,105,42,52,73
68995272,98,69,29,104,45,52,73
68999963,107,66,29,107,51,57,72
69004636,129,64,29,116,64,62,72
69009308,125,62,28,110,67,61,71
69013981,122,59,28,108,72,60,71
69018654,118,58,28,103,70,57,71
69023327,110,56,29,97,65,59,71
69028000,103,55,28,97,61,55,74
69032672,98,57,29,99,57,53,75
69037346,94,56,29,94,53,51,74
69042020,88,57,28,90,53,50,74
69046694,83,60,29,92,52,50,73
69051428,79,59,29,92,90,53,72
69056102,75,60,29,90,111,54,72
69059895,72,58,29,88,132,56,72
69064581,68,63,28,86,125,58,72
69069254,66,61,29,86,138,67,71
69073928,63,60,29,86,149,65,71
69078602,63,60,29,100,141,63,70
69083274,71,63,28,101,129,60,73
69087947,70,73,29,108,119,58,72
69092619,66,71,28,107,111,55,72
69097291,63,68,29,110,108,53,72
69101963,61,70,29,127,109,53,72
69106636,60,71,28,133,116,54,72
69111308,64,71,28,154,116,52,72
69115980,62,78,29,162,110,51,81
69120653,60,80,29,173,102,50,91
69125325,58,76,28,178,100,52,92
69129975,56,74,28,169,101,50,92
69134674,63,77,29,171,101,49,95
69139374,71,89,28,165,98,50,101
69144073,69,86,29,161,93,49,107
69148773,72,81,29,150,86,48,112
69153473,77,77,29,141,79,46,117
69158181,78,73,29,132,74,44,121
69162881,82,69,28,124,69,43,121
69167580,89,66,29,117,64,44,117
69172281,106,67,29,109,66,45,113
69176982,125,88,28,102,95,50,110
69181681,148,148,29,97,108,64,109
69186381,173,166,29,92,112,72,106
69191082,182,164,29,90,125,80,103
69195783,187,159,28,92,135,87,101
69200384,186,148,29,91,130,85,98
69205002,176,137,29,88,121,80,96
69209623,171,130,28,84,112,75,94
69214242,160,121,29,80,104,73,91
69218859,149,113,29,77,96,69,93
69223477,138,105,28,79,89,65,97
69228097,128,98,29,78,82,64,104
69232716,121,92,28,81,77,61,114
69237333,114,87,28,93,73,65,125
69241953,110,83,29,91,69,73,134
69246573,106,80,28,89,73,76,148
69251192,100,84,28,92,78,74,160
69255810,96,83,28,102,74,72,173
69260431,96,102,29,101,84,79,198
69265050,112,105,28,107,105,95,222
69269669,122,126,29,117,132,98,246
69274346,116,189,28,148,151,105,267
69279045,117,196,29,141,194,103,284
69283755,118,201,28,134,232,107,297
69288465,121,205,28,135,223,105,310
69293177,114,195,28,132,204,100,321
69297889,107,181,28,126,188,93,330
69302602,99,166,29,128,176,86,338
69307313,93,154,28,142,199,86,342
69312026,88,142,28,160,251,87,342
69316739,84,139,29,184,254,109,340
69321452,81,152,28,224,261,118,333
69326164,115,187,29,228,282,128,328
69330877,113,204,28,228,279,127,315
69335589,127,216,28,213,341,133,300
69340167,133,239,28,199,379,127,289
69344960,141,261,29,187,419,129,275
69349754,137,267,28,200,408,126,272
69354547,127,262,29,191,389,121,270
69359341,120,245,28,185,361,125,266
69364134,121,232,29,178,344,118,261
69368928,125,212,29,195,314,110,254
69373721,124,196,28,236,291,102,248
69378515,133,181,29,228,276,95,242
69383308,148,176,28,224,277,91,237
69388102,146,299,28,214,328,100,233
69392896,248,348,28,209,326,97,227
69397689,304,406,29,197,298,94,220
69402483,326,411,29,181,304,89,210
69407141,307,528,29,168,323,87,201
69411945,288,560,29,155,400,92,196
69416732,271,607,29,145,423,91,189
69421519,261,564,29,143,386,91,184
69426319,260,510,29,142,356,85,178
69431152,247,462,28,168,323,81,173
69435953,239,419,28,203,299,76,168
69440746,226,390,28,188,283,74,166
69445533,233,363,28,175,295,78,165
69450319,223,379,29,169,295,80,159
69455121,228,415,29,168,270,78,152
69459922,220,425,28,186,260,79,146
69464713,207,446,28,194,334,79,141
69469522,233,466,29,194,359,85,138
69474229,226,457,28,197,358,104,132
69479070,227,559,29,229,396,116,128
69483868,236,590,29,218,390,117,123
69488655,230,571,28,232,360,117,119
69493442,215,524,28,236,336,114,118
69498228,197,480,29,218,319,111,117
69503015,182,442,29,214,318,104,113
69507810,187,408,28,201,304,106,110
69512597,177,374,29,205,278,105,107
69517384,164,344,28,230,261,100,104
69522171,155,319,28,272,295,104,101
69526957,150,303,28,254,338,123,99
69531744,146,315,28,290,415,138,97
69536532,179,354,28,352,434,153,97
69541210,176,329,29,353,404,147,95
69545995,171,360,29,410,377,140,93
69550782,161,364,28,462,360,135,135
69555569,155,359,28,458,344,127,150
69560355,144,337,29,450,336,122,149
69565156,133,310,28,535,334,118,147
69569945,128,287,29,527,307,110,144
69574732,122,267,29,499,288,104,139
69579517,124,247,29,467,293,104,160
69584305,116,226,29,508,284,100,167
69589093,109,209,29,550,273,100,161
69593880,103,191,29,593,281,95,160
69598666,101,176,29,584,285,94,233
69603454,98,163,29,701,274,91,233
69608138,92,151,28,827,256,85,239
69612921,87,139,28,875,233,81,235
69617705,83,129,28,820,237,82,237
69622489,79,120,28,819,240,85,250
69627273,76,115,28,787,238,87,245
69632057,74,114,29,822,292,91,262
69636841,77,106,29,886,323,99,263
69641626,74,108,29,863,330,96,254
69646410,71,104,28,807,397,101,246
69651195,68,98,29,745,422,102,245
69655979,66,96,29,701,405,98,318
69660764,65,96,29,770,390,94,350
69665548,62,96,28,868,354,89,338
69670333,60,116,28,921,324,84,323
69675133,67,121,29,920,310,81,313
69679038,66,122,28,920,299,79,300
69683850,66,113,28,921,289,77,294
69688662,67,106,29,920,286,79,281
69693473,68,99,28,921,301,78,266
69698285,67,99,28,921,285,75,251
69703097,64,95,29,921,261,73,238
69707909,61,91,28,920,238,69,228
69712721,59,88,28,904,230,67,224
69717533,59,90,28,840,284,83,222
69722344,59,84,29,773,297,89,212
69727156,58,82,29,732,303,89,208
69731967,57,84,29,756,279,84,207
69736779,55,82,28,743,271,81,203
69741591,56,79,28,746,266,84,203
69746304,56,76,29,788,251,81,195
69751032,63,85,28,781,237,78,186
69755761,78,106,28,868,215,76,183
69760490,80,114,29,817,197,71,180
69765218,96,117,28,766,179,67,180
69769947,91,113,28,779,164,63,186
69774676,89,105,29,797,155,61,189
69779404,88,100,29,733,208,64,186
69784133,86,93,29,702,205,62,185
69788861,88,88,29,668,187,60,185
69793590,84,83,29,695,171,59,182
69798318,79,78,29,639,156,57,184
69803052,75,74,29,663,143,54,189
69807781,71,70,29,689,137,51,194
69812509,71,69,29,644,131,49,197
69817403,72,72,28,589,128,51,197
69822250,69,70,29,566,132,51,191
69827096,79,70,29,547,125,49,185
69831942,76,83,29,551,125,49,178
69836789,77,92,30,559,127,48,184
69841635,74,110,29,570,117,47,197
69846482,73,102,28,620,108,45,209
69851328,69,95,28,568,100,44,218
69856175,66,89,28,527,96,44,221
69861022,63,84,28,506,90,43,220
69865868,61,79,28,473,84,42,217
69870714,58,75,28,531,78,41,224
69875562,56,71,28,502,73,39,232
69880410,54,69,28,461,73,38,238
69885256,54,72,28,423,74,38,233
69890103,65,81,29,418,69,37,225
69894797,77,114,29,478,66,36,232
69905394,89,147,28,554,64,36,245
69910231,96,138,28,588,60,35,248
69915093,108,147,28,599,57,35,251
69919955,105,153,29,551,54,34,252
69924817,119,157,29,498,50,33,251
69929681,115,150,28,455,48,33,249
69934545,106,138,29,427,45,33,248
69939408,99,128,29,390,43,32,247
69944300,93,118,28,366,41,32,245
69949212,87,110,28,377,40,32,243
69954124,82,102,28,409,39,33,237
69959036,77,96,28,410,44,33,225
69963948,75,96,28,464,44,33,217
69968861,81,139,28,557,41,32,218
69973636,90,180,28,537,41,32,222
69978541,105,207,29,490,42,32,228
69983447,118,198,28,447,40,32,230
69988353,111,181,28,408,39,32,229
69993259,102,167,28,376,37,32,225
69998165,96,154,28,356,40,33,222
70003071,92,143,29,326,41,33,220
70007976,87,133,29,297,45,31,220
70012882,85,124,28,278,48,32,215
70017788,100,117,28,266,45,32,208
70022694,104,125,29,277,42,32,202
70027600,100,148,29,371,41,32,202
70032509,106,168,28,360,41,31,207
70037415,109,206,28,332,41,32,210
70042294,136,293,28,302,45,33,208
70047200,157,283,29,282,48,32,203
70052143,148,258,28,269,51,32,200
70057049,137,238,29,249,53,32,197
70061955,126,221,28,229,56,31,193
70066861,117,204,28,210,57,30,189
70071767,109,186,28,196,57,31,183
70076673,105,171,29,183,57,31,180
70081580,98,158,29,176,61,33,176
70086486,94,150,28,178,62,37,168
70091393,89,149,28,180,59,39,161
70096300,95,155,29,188,62,40,160
70101207,99,159,29,186,61,42,163
70106113,117,170,28,181,57,41,163
70111019,129,180,28,181,53,40,163
70115872,121,205,29,185,53,39,162
70120776,117,190,29,181,60,38,161
70125678,110,177,28,206,58,37,158
70130582,104,170,28,196,57,37,154
70135487,98,157,29,181,55,36,150
70140390,92,144,28,173,54,35,146
70145292,91,152,28,166,54,34,144
70150196,124,182,28,161,54,34,141
70155101,141,208,28,158,56,34,139
70160005,158,228,28,147,56,33,135
70164908,155,246,29,137,63,33,130
70169813,170,258,28,138,67,34,126
70174718,170,260,29,135,64,34,122
70179622,157,261,28,141,61,33,125
70184527,145,254,29,144,62,33,128
70189330,137,238,28,170,60,34,128
70194235,127,219,28,161,64,34,125
70199140,118,200,28,158,63,35,122
70204063,109,184,28,147,59,34,118
70208968,102,169,28,141,61,34,113
70213873,99,161,28,149,58,34,108
70218778,101,186,28,161,56,34,106
70223684,95,201,28,160,57,35,102
70228590,106,205,29,150,57,37,100
70233495,100,200,28,138,59,37,101
70238402,104,187,28,130,57,36,99
70243308,97,182,28,128,55,36,102
70248213,92,172,28,135,59,35,105
70253123,87,174,28,133,56,35,104
70258036,83,171,28,132,55,34,102
70262821,94,180,28,140,54,33,99
70267754,97,192,28,135,52,33,96
70272687,97,194,28,129,49,33,93
70277635,94,201,29,123,46,32,90
70282578,89,217,28,115,43,32,88
70287511,86,217,28,110,49,32,86
70292444,84,205,29,107,47,32,85
70297379,83,214,28,105,44,32,84
70302312,78,206,29,109,42,31,83
70307246,80,197,29,121,40,31,83
70312178,88,195,28,119,45,32,82
70317111,85,181,28,122,44,32,80
70322044,89,185,29,122,43,32,78
70326977,89,172,28,119,48,32,77
70331909,85,159,28,120,45,33,77
70336681,81,160,29,119,44,32,76
70341530,78,158,28,115,44,32,75
70346381,78,162,29,108,44,32,74
70351231,81,159,28,103,42,32,73
70356081,101,155,28,99,41,32,73
70360931,102,156,28,100,40,32,72
70365781,102,146,28,96,38,32,70
70370632,97,159,28,95,39,31,69
70375482,99,168,29,91,43,32,69
70380332,111,208,29,91,45,32,69
70385183,110,205,28,94,44,31,69
70390033,113,208,28,104,52,32,69
70394884,114,212,28,110,53,32,68
70399734,124,207,29,106,51,31,68
70404584,119,208,29,100,48,31,68
70409434,111,193,29,103,46,31,68
70414346,103,177,28,104,45,32,68
70419266,105,162,29,105,47,33,68
70424178,108,164,29,101,46,34,68
70429092,106,164,28,102,45,33,67
70434005,101,163,29,119,43,33,67
70438916,95,160,28,118,42,32,67
70443828,89,155,29,112,42,32,68
70448743,86,153,28,105,41,32,67
70453655,82,164,28,101,41,32,65
70458567,78,173,28,97,42,32,64
70463481,77,193,28,96,45,32,64
70468395,75,179,28,96,45,32,64
70473308,82,166,28,101,44,31,64
70478221,79,164,28,102,41,31,64
70483135,83,172,28,99,40,31,64
70487933,84,190,29,98,41,32,64
70492928,88,176,29,99,40,31,64
70497922,84,202,28,104,44,36,64
70502919,80,203,28,100,42,36,64
70507916,76,204,29,95,42,35,64
70512911,73,222,29,93,40,35,63
70517908,71,219,29,92,39,34,62
70522905,67,202,28,91,37,34,62
70527902,68,185,28,97,36,33,63
70532899,66,176,29,93,35,33,63
70537898,66,170,28,96,35,32,63
70542899,64,159,28,99,34,32,63
70547899,68,159,28,96,34,32,64
70552898,68,157,28,90,33,32,63
70557899,74,158,28,88,38,32,64
70562900,80,169,29,100,36,32,64
70567801,75,175,29,102,35,32,64
70572795,72,190,29,112,33,33,64
70577789,68,190,28,107,34,37,63
70582783,74,223,29,110,35,37,63
70587776,70,273,28,113,42,36,62
70592770,77,258,28,108,40,36,62
70597763,74,237,28,115,39,35,62
70602757,85,216,28,112,38,34,63
70607751,84,217,29,109,43,34,64
70612744,92,218,28,109,50,34,63
70617738,96,218,28,104,48,33,62
70622732,93,237,29,99,45,33,61
70627726,89,249,29,94,42,33,60
70632719,85,244,29,89,40,32,61
70637713,84,249,28,84,41,32,61
70642707,91,241,28,85,52,33,61
70647553,92,223,28,91,51,38,62
70652545,110,265,28,105,61,37,65
70657538,114,282,29,117,65,37,69
70662531,141,305,29,122,60,37,69
70667524,148,324,28,130,58,36,69
70672518,150,366,28,133,56,35,72
70677528,190,393,29,152,53,35,71
70682521,185,359,28,156,51,35,71
70687541,170,330,28,165,48,35,71
70692548,160,304,28,158,49,34,71
70697581,149,278,29,154,48,34,71
70702595,137,253,29,144,46,37,69
70707588,128,229,29,153,44,37,68
70712591,118,209,29,216,44,38,69
70717597,110,192,28,272,44,39,72
70722510,102,175,28,254,43,38,73
70727499,95,160,29,246,65,39,72
70732506,89,152,28,267,77,41,73
70737525,84,142,29,286,82,41,72
70742572,89,143,28,300,108,44,76
70747562,85,153,29,273,110,48,94
70752578,102,154,28,257,110,51,139
70757592,97,146,28,242,100,49,159
70762581,97,158,27,225,98,47,170
70767586,95,175,28,218,99,45,180
70772575,90,195,28,215,105,45,187
70777564,85,191,29,227,100,43,188
70782553,80,175,28,263,93,41,188
70787555,76,160,28,301,89,40,187
70792545,73,147,28,352,81,39,181
70797397,69,136,29,345,76,38,175
70802386,66,132,28,366,71,38,171
70807391,91,125,29,439,66,37,175
70812382,96,127,28,454,61,36,182
70817384,106,139,28,452,58,36,196
70822392,110,148,29,449,58,35,209
70827403,110,148,29,427,58,35,219
70832394,103,160,28,389,62,34,222
70837396,100,164,28,358,63,33,222
70842387,94,157,29,341,60,34,221
70847379,88,146,28,312,56,33,220
70852370,83,136,28,284,52,33,218
70857359,78,126,28,259,50,33,217
70862351,74,117,29,236,46,33,216
70867343,71,108,28,216,45,33,217
70872213,66,101,28,199,53,33,215
70877245,64,96,28,185,51,33,213
70882277,63,105,28,174,48,32,211
70887309,68,113,28,161,45,32,211
70892340,69,128,28,151,43,32,212
70897373,66,207,28,144,44,31,214
70902406,76,271,29,139,42,32,214
70907439,102,273,28,136,40,32,211
70912471,96,249,28,126,37,32,210
70917504,90,230,28,123,36,32,208
70922537,84,211,28,118,34,33,200
70927570,80,193,29,124,33,33,193
70932617,75,177,29,124,32,32,198
70937650,71,162,28,124,31,32,203
70942682,68,150,28,121,30,32,205
70947480,65,138,28,117,32,32,207
70952428,62,130,28,114,40,32,207
70957375,61,120,29,108,43,32,207
70962322,59,118,29,106,48,32,206
70967269,57,112,28,122,46,32,202
70972217,57,115,28,155,43,31,197
70977164,55,108,28,189,41,33,200
70982111,54,101,28,184,42,36,202
70987058,52,97,29,170,42,38,199
70992006,50,97,28,160,40,36,191
70996953,50,98,28,149,48,36,188
71001901,51,97,28,145,52,36,191
71006848,51,95,29,147,49,35,196
71011795,51,97,28,144,46,35,198
71016743,51,101,29,137,44,35,200
71021756,50,141,29,133,41,34,200
71026775,52,183,28,128,39,34,199
71031791,60,178,29,131,40,35,197
71036808,57,172,28,129,39,33,195
71041824,55,161,28,123,42,34,193
71046840,53,149,29,124,41,34,190
71051856,52,137,28,156,39,39,187
71056876,50,126,29,154,37,40,184
71061892,49,116,28,205,36,39,181
71066912,48,108,29,204,36,38,181
71071929,48,100,29,206,34,37,182
71076945,47,95,28,211,33,37,181
71081962,46,89,28,209,32,36,181
71086978,47,92,28,206,32,35,184
71091994,48,96,28,190,31,35,186
71096919,58,102,29,176,30,35,187
71102018,58,105,28,168,29,34,187
71107118,57,104,29,167,33,34,185
71112217,55,111,29,158,37,34,177
71117316,53,105,28,149,43,34,177
71122416,52,99,28,145,41,33,182
71127516,52,95,28,142,40,33,187
71132616,60,97,28,153,38,33,188
71137716,69,109,28,151,36,32,188
71142815,73,136,29,145,34,32,189
71147916,72,132,29,136,33,32,190
71153017,69,125,29,127,32,32,190
71158116,67,131,28,119,32,32,187
71163216,65,132,28,115,34,32,185
71168318,64,127,28,114,36,31,181
71179035,59,123,28,118,45,37,175
71184027,62,114,28,122,49,38,170
71189043,60,107,28,135,46,37,169
71194061,59,114,28,152,44,36,172
71199079,59,133,29,153,41,35,174
71204097,57,147,28,149,41,35,179
71209116,56,155,28,146,39,34,184
71214134,54,156,28,139,37,34,185
71219181,53,160,29,147,36,34,186
71224248,53,168,29,141,34,33,187
71229315,51,180,28,134,32,33,188
71234382,50,174,28,128,31,33,187
71239449,49,164,28,133,30,33,186
71244516,48,150,28,126,29,32,185
71249583,49,143,28,122,28,32,185
71254630,49,139,29,131,28,32,181
71259697,53,136,29,143,27,32,176
71264765,53,125,29,136,31,32,170
71269833,61,116,28,128,32,31,167
71274901,69,123,28,125,31,31,168
71279968,67,123,29,132,30,31,173
71285036,72,122,28,125,29,31,178
71290104,69,125,28,117,29,31,182
71295172,65,116,28,110,28,30,183
71300240,64,109,28,103,28,30,184
71305308,61,106,28,97,31,31,183
71310376,59,119,28,99,31,31,181
71315444,57,126,28,118,31,31,178
71320512,55,125,29,137,29,31,176
71325581,62,141,28,129,29,31,169
71330648,60,160,28,139,28,32,166
71335742,65,168,28,133,28,31,169
71340837,62,155,28,132,27,30,173
71345933,60,145,28,133,26,30,174
71351029,58,146,29,125,26,30,173
71356124,56,140,28,117,25,30,172
71361222,54,135,29,109,24,30,170
71366317,53,133,28,103,24,30,169
71371413,52,129,28,97,24,30,167
71376510,57,121,28,91,24,30,161
71381607,57,113,28,88,24,30,153
71386703,60,121,28,96,23,30,153
71391798,60,132,28,93,23,30,151
71396897,62,152,28,106,23,30,148
71401994,65,153,28,116,25,30,150
71407089,66,155,28,113,27,30,156
71412013,65,150,28,106,27,30,157
71417111,62,143,28,102,26,30,157
71422208,62,146,28,100,26,30,157
71427304,59,144,29,96,25,30,157
71432402,57,133,28,90,25,30,158
71437501,55,124,28,87,25,30,157
71442598,53,114,29,83,25,30,157
71447694,60,114,28,83,24,30,158
71452793,65,117,28,88,24,30,157
71457891,68,122,28,92,24,30,154
71462988,68,119,28,92,23,30,145
71468086,73,117,29,91,23,30,144
71473184,73,119,28,94,23,30,149
71478282,70,120,28,99,23,30,155
71483380,66,122,28,94,23,30,157
71488374,64,126,28,93,23,30,157
71493464,62,122,28,93,23,30,154
71498556,60,119,29,90,24,30,150
71503647,59,117,28,86,26,29,147
71508738,63,119,28,82,25,30,149
71513829,63,130,29,80,24,30,149
71518926,60,142,28,76,24,30,148
71524022,64,150,29,73,24,30,149
71529113,62,149,28,75,24,30,148
71534204,63,150,28,88,24,29,147
71539295,66,140,28,88,23,30,145
71544386,66,132,28,85,23,29,143
71549477,63,128,29,81,23,30,141
71554568,63,141,28,78,23,30,138
71559659,61,149,28,76,23,29,135
71564750,60,139,28,74,23,30,132
71569624,59,129,28,71,22,30,129
71574636,57,123,28,71,22,29,126
71579657,62,126,29,70,22,29,124
71584664,62,135,29,70,22,30,121
71589671,69,166,27,70,22,31,118
71594680,72,153,28,74,22,31,113
71599687,68,142,29,84,22,31,111
71604693,73,141,28,85,22,31,110
71609710,71,135,28,81,22,31,109
71614717,68,131,28,80,23,31,107
71619723,65,130,28,93,22,31,106
71624730,62,122,28,96,22,30,106
71629737,60,118,28,99,22,30,106
71634743,57,114,28,95,22,30,106
71639750,56,110,28,89,23,30,104
71644308,54,114,28,87,22,31,77
71648881,55,122,28,82,25,32,82
71653483,66,128,28,79,25,33,96
71658086,67,132,28,77,25,33,95
71662688,79,157,28,81,25,32,94
71667290,80,174,28,88,24,32,91
71671893,77,176,29,87,24,31,89
71676495,73,169,29,94,24,31,89
71681098,73,173,28,92,24,31,89
71685700,72,177,29,88,23,31,88
71690313,73,167,29,84,23,31,86
71694916,83,164,28,80,22,31,85
71699519,110,152,29,77,24,31,84
71704122,154,141,29,77,24,32,83
71708724,144,132,29,76,24,32,81
71713327,134,123,28,81,24,32,79
71717817,124,114,29,79,24,32,78
71722500,117,106,28,76,24,31,77
71727182,110,100,28,73,24,31,78
71731866,109,93,29,73,24,31,78
71736551,147,89,28,70,23,31,78
71741234,181,85,28,74,23,31,78
71745917,188,82,28,78,23,31,78
71750602,192,77,28,90,23,31,77
71755286,183,73,29,98,23,32,76
71759969,191,70,28,109,23,31,75
71764653,177,69,29,106,23,32,74
71769338,175,66,28,100,23,32,74
71774022,176,70,28,99,22,32,74
71778705,170,72,29,104,23,31,73
71783390,159,69,28,105,26,33,72
71788075,168,70,29,106,26,33,71
71792626,171,67,29,105,26,33,69
71797332,204,68,28,106,30,33,69
71802039,232,67,28,105,31,37,68
71806746,217,72,28,99,31,38,68
71811454,200,71,28,96,30,37,66
71816162,185,68,28,98,29,37,65
71820873,170,64,29,104,29,36,65
71825583,157,61,29,125,28,36,65
71830294,145,59,28,160,28,36,64
71835003,134,57,28,164,27,35,65
71839713,125,64,29,161,26,35,66
71844423,117,69,29,152,26,34,65
71849134,123,67,29,141,25,34,65
71853844,126,65,29,132,25,33,65
71858555,140,65,29,126,27,33,65
71863208,137,66,29,118,28,33,65
71867919,143,68,28,111,28,33,65
71872629,137,69,29,138,28,35,65
71877340,127,66,29,175,27,35,65
71882051,118,63,28,172,26,35,65
71886761,110,60,29,180,26,34,66
71891471,103,59,29,222,26,34,65
71896182,97,57,29,242,25,36,65
71900892,91,55,28,279,25,35,65
71905602,85,53,28,313,25,35,67
71910313,81,51,29,298,24,34,68
71915023,77,50,29,283,24,34,69
71919734,73,48,29,266,24,33,68
71924444,69,47,29,245,23,33,67
71929154,66,46,28,225,23,33,66
71933865,65,45,29,208,26,33,69
71938491,62,44,29,193,28,35,70
71943186,60,44,29,178,28,35,72
71947880,58,42,28,166,28,34,72
71952575,56,42,29,159,27,34,70
71957269,54,41,29,170,27,34,71
71961964,52,47,28,193,26,33,75
71966666,52,56,28,216,26,33,79
71971360,56,74,28,201,25,33,82
71976060,54,83,29,189,25,32,84
71980761,54,85,28,177,24,32,88
71985456,53,84,28,164,24,32,91
71990160,54,85,28,152,24,32,94
71994855,56,84,28,141,23,31,95
71999582,54,80,29,133,23,31,97
72004293,52,76,29,127,23,31,99
72008987,51,72,29,121,23,32,101
72013598,50,69,29,117,23,31,101
72018327,49,65,29,117,22,31,102
72023028,48,62,29,122,22,31,102
72027746,46,60,29,121,22,31,102
72032440,46,58,28,120,22,31,103
72037147,45,55,29,113,22,31,103
72041842,44,54,28,109,22,30,106
72046536,43,54,29,106,22,30,104
72051240,43,57,28,102,22,30,102
72055935,42,58,28,109,22,30,109
72060630,42,71,29,105,22,30,112
72065334,42,77,28,99,21,30,115
72070029,44,74,28,94,21,30,116
72074725,44,71,28,89,21,30,116
72079419,43,68,29,85,21,30,115
72084114,43,65,28,81,21,30,115
72088674,43,61,29,78,21,30,115
72093360,42,59,28,75,22,30,113
72098050,41,57,29,72,22,30,113
72102746,41,55,29,70,23,30,111
72107433,41,53,28,67,23,30,110
72112119,40,51,28,65,23,30,109
72116803,40,50,29,63,23,30,108
72121489,40,49,29,61,22,30,106
72126176,40,49,28,60,22,30,105
72130862,40,49,29,59,22,30,105
72135547,40,49,29,57,22,30,105
72140234,45,51,29,57,23,29,103
72144921,45,52,29,59,23,30,100
72149607,47,55,29,59,24,30,98
72154293,46,53,28,57,29,30,96
72158980,45,51,29,56,31,30,94
72163482,44,50,29,56,40,31,90
72168085,44,49,29,54,43,31,91
72172689,43,48,28,55,41,32,90
72177292,42,46,28,55,40,32,90
72181908,42,45,29,56,51,31,89
72186530,42,45,28,64,53,31,90
72191134,42,53,28,69,52,31,91
72195737,62,74,29,84,49,31,93
72200341,65,80,29,112,46,31,92
72204944,62,76,29,109,45,31,92
72209547,60,72,28,102,43,31,92
72214150,58,68,28,97,50,31,92
72218753,56,65,28,92,60,32,90
72223357,54,62,28,88,67,35,89
72227961,53,60,28,84,70,34,90
72232564,51,65,29,80,71,38,91
72237305,52,68,29,77,65,39,92
72242003,52,78,29,74,65,38,92
72246711,57,86,29,71,61,37,93
72251419,64,89,29,69,65,36,91
72256127,62,84,29,77,72,36,89
72260835,60,81,28,77,78,35,86
72265543,58,76,28,86,74,35,85
72270251,56,72,29,86,69,34,84
72274959,54,68,28,91,64,34,83
72279667,52,65,28,89,59,33,82
72284375,51,62,28,84,56,33,81
72289084,50,59,29,81,52,33,79
72293792,49,57,28,79,50,33,79
72298500,47,55,29,81,56,32,82
72303209,47,53,28,80,57,32,88
72307917,46,52,28,78,58,33,97
72312626,45,70,29,77,59,38,95
72317227,48,85,28,74,59,43,93
72322016,48,90,28,72,73,42,90
72326806,47,87,29,69,81,42,89
72331595,46,85,28,67,99,46,88
72336383,45,81,29,65,98,54,86
72341172,44,76,29,62,108,55,85
72345962,44,72,29,61,103,52,84
72350751,43,68,29,59,98,50,82
72355540,42,65,29,58,103,49,81
72360329,42,62,28,59,95,47,80
72365118,47,62,28,67,96,45,78
72369907,51,85,28,68,141,49,78
72374697,63,116,28,73,162,50,77
72379487,74,133,29,72,191,66,76
72384276,93,152,29,70,202,76,76
72389066,102,151,28,70,187,73,75
72393769,96,141,28,69,182,76,74
72398559,90,131,28,67,172,85,74
72403349,85,121,28,69,160,85,73
72408139,80,112,28,69,192,86,73
72418650,73,97,28,87,364,87,72
72423328,79,94,29,88,401,95,71
72428052,124,97,28,95,372,91,71
72432778,132,103,28,102,336,86,72
72437505,148,112,28,99,308,80,72
72442232,155,110,28,103,288,76,71
72446960,145,112,28,102,276,76,71
72451687,139,117,28,98,272,79,70
72456421,138,118,28,93,251,81,70
72461196,132,117,28,91,284,93,70
72465972,122,110,28,89,300,109,70
72470681,134,103,28,90,366,105,69
72475456,169,117,28,95,364,104,69
72480232,180,136,28,91,337,98,70
72485007,196,143,28,89,314,94,71
72489782,201,162,28,87,296,89,71
72494557,224,242,28,87,337,92,71
72499333,246,305,29,84,351,93,71
72504109,265,381,29,84,401,95,76
72508885,282,425,28,86,383,96,80
72513661,274,391,28,86,386,109,80
72518437,252,360,28,86,360,108,79
72523214,255,329,28,82,380,104,78
72527990,255,300,28,82,375,98,77
72532766,238,276,28,88,349,93,76
72537543,224,259,28,102,320,88,76
72542231,206,274,28,101,296,82,75
72547034,228,287,28,99,280,77,76
72551819,244,337,28,99,264,72,76
72556631,279,401,28,106,248,68,77
72561440,289,384,28,121,238,69,80
72566216,292,377,28,130,291,72,79
72570993,284,365,29,139,402,72,77
72575770,272,369,28,136,497,75,75
72580547,265,344,28,134,600,86,74
72585324,264,341,28,127,586,97,73
72590102,287,379,28,132,535,113,73
72594880,328,377,28,141,500,116,73
72599658,327,404,29,138,469,110,72
72604435,344,464,28,148,461,102,72
72609215,368,446,28,169,526,101,70
72613109,373,424,28,166,500,101,70
72617904,357,460,28,182,481,111,70
72622682,335,440,28,188,498,136,69
72627462,327,429,28,183,493,143,70
72632239,319,429,28,172,477,137,71
72637017,322,400,28,160,477,138,70
72641796,336,405,28,148,444,134,70
72646575,365,394,28,137,422,144,73
72651352,435,459,28,130,385,147,73
72656131,501,452,28,133,357,141,73
72660910,520,424,28,132,325,136,75
72665690,481,445,28,134,362,127,74
72670468,484,451,28,131,379,125,73
72675247,472,470,29,126,384,134,74
72679937,450,497,28,137,412,158,72
72684716,424,527,28,195,501,158,71
72689495,417,508,28,197,492,169,71
72694275,427,471,28,199,453,177,70
72699055,415,442,28,199,430,168,69
72703835,382,429,28,189,409,156,69
72708632,349,417,28,174,378,149,70
72713412,323,399,28,161,371,157,69
72718192,312,366,28,153,524,174,69
72722973,345,345,28,148,608,176,68
72727754,385,429,28,150,676,204,71
72732535,453,459,28,144,645,198,71
72737316,461,552,29,144,593,182,71
72742097,462,539,28,140,657,171,74
72746689,437,509,27,140,713,173,75
72751388,445,470,28,132,783,171,74
72756087,454,441,28,124,796,164,73
72760786,439,436,29,116,741,160,73
72765486,400,413,29,109,821,162,73
72770185,378,391,28,104,907,183,72
72774885,470,382,29,98,923,199,72
72779584,536,366,29,93,923,189,71
72784305,574,344,28,88,888,174,72
72789017,540,316,29,84,829,162,70
72793720,495,307,28,80,773,154,69
72798419,453,293,28,77,737,144,69
72803118,412,271,28,85,833,153,69
72807817,377,328,28,102,878,165,68
72815871,330,411,28,140,922,162,68
72821079,306,386,28,137,868,153,67
72826084,290,394,28,130,907,155,67
72831079,319,369,28,126,922,170,66
72836073,421,345,29,127,923,186,66
72841068,439,331,28,121,922,189,66
72846062,403,317,28,113,904,174,66
72851057,374,288,29,106,849,160,65
72856051,342,266,29,100,792,147,64
72861045,316,250,28,95,723,138,64
72866039,288,243,28,90,649,130,64
72871035,266,247,28,91,591,138,64
72876030,254,297,29,92,612,146,64
72881024,258,341,27,94,602,140,65
72886018,323,421,28,89,621,141,65
72890859,415,401,28,87,628,138,65
72895948,412,400,29,88,735,179,65
72901025,377,373,28,93,689,177,65
72906102,343,338,28,90,659,167,65
72911178,317,330,28,89,607,158,65
72916256,289,315,28,85,554,155,65
72921332,262,298,29,85,501,145,65
72926409,240,274,28,85,453,139,65
72931486,223,269,28,88,410,130,65
72936565,237,256,28,89,373,121,66
72941641,219,268,28,87,380,118,65
72946718,219,259,28,91,370,118,65
72951796,201,273,28,94,345,122,65
72956875,184,263,28,90,348,118,66
72961951,172,249,29,86,353,118,65
72967021,158,229,28,83,318,114,66
72972094,146,210,28,78,310,115,66
72977167,140,204,29,75,319,112,66
72982237,136,200,29,72,290,112,65
72987308,129,210,28,69,290,111,65
72992381,132,228,28,68,264,106,65
72997454,147,258,28,67,240,97,65
73002523,155,287,28,77,218,92,65
73007596,154,308,29,85,197,86,65
73012668,142,280,28,85,205,81,65
73017741,131,263,29,82,190,86,65
73022812,121,255,29,78,215,83,65
73027885,113,237,28,75,226,84,65
73032958,105,217,29,72,270,86,65
73038002,98,197,28,69,256,93,65
73043075,91,180,29,67,278,102,65
73048151,87,169,29,65,276,100,65
73053227,86,163,28,65,284,117,65
73058303,81,154,28,63,334,120,65
73063377,81,145,28,60,364,128,65
73068453,75,134,28,59,334,121,66
73073528,71,123,28,58,314,112,64
73078604,68,130,29,57,286,103,65
73083680,74,152,29,61,277,96,65
73088755,73,149,29,62,250,91,63
73093831,69,162,28,62,232,102,63
73098906,69,153,29,62,219,104,63
73103982,66,157,28,65,201,103,63
73109057,68,164,28,67,212,126,65
73114122,79,165,28,66,226,125,65
73119194,78,179,29,65,250,116,68
73124266,74,167,28,65,273,109,69
73129337,74,158,28,62,263,108,70
73134409,70,147,28,60,244,102,73
73139481,70,136,28,59,238,95,75
73144552,66,125,28,57,224,89,78
73149624,64,116,29,56,214,104,79
73154696,61,107,29,56,204,110,80
73159768,58,102,28,56,190,121,81
73164839,60,113,28,62,181,121,83
73169911,70,126,28,64,164,116,85
73174983,72,168,29,63,174,110,85
73180065,78,212,28,61,234,118,84
73185150,90,201,28,60,274,115,83
73190203,89,184,28,58,339,130,81
73195291,84,170,29,57,320,124,80
73200375,88,156,28,56,346,124,78
73205520,94,143,29,55,373,130,76
73210602,97,132,28,54,368,135,76
73215673,92,121,28,53,341,126,75
73220745,87,114,28,52,330,126,74
73225831,85,125,28,51,300,124,74
73230903,119,149,28,51,270,140,76
73235975,137,150,28,50,260,149,75
73241054,128,139,28,54,311,158,74
73246142,123,163,29,62,364,169,73
73251271,118,190,29,65,374,166,73
73256349,113,191,29,69,353,153,71
73261421,104,175,28,76,326,142,71
73266497,101,160,28,77,304,139,68
73271615,97,147,28,75,298,133,67
73276714,91,135,29,75,289,126,66
73281845,85,124,29,84,267,128,67
73286944,80,115,29,91,259,133,67
73292043,76,133,28,87,251,128,68
73297151,97,168,28,83,275,163,69
73302252,109,161,28,79,325,165,69
73307351,132,154,28,75,343,154,69
73312450,171,201,29,72,362,151,71
73317549,185,264,28,70,414,156,72
73322651,199,254,29,76,470,169,72
73327750,183,232,28,74,440,165,72
73332849,169,213,28,89,415,165,71
73337950,155,198,28,97,391,155,71
73342899,143,187,29,111,361,157,70
73347913,132,171,28,120,336,163,70
73352964,124,182,28,124,378,166,71
73357981,155,249,28,117,372,168,75
73362998,189,297,28,111,379,176,74
73368012,189,273,29,106,386,172,73
73373028,184,249,28,100,352,157,73
73378044,179,227,28,109,350,151,72
73383060,177,220,28,112,342,141,72
73388074,165,207,29,129,334,147,71
73393091,158,197,28,121,314,144,71
73398108,148,227,29,120,321,141,70
73403124,180,286,28,129,302,137,77
73408140,215,344,29,151,293,136,76
73412762,202,335,29,165,291,128,76
73417344,220,320,28,170,285,126,74
73421957,215,299,28,196,270,123,73
73426569,207,289,29,186,296,125,73
73431182,196,271,28,174,329,138,72
73435807,186,250,29,164,347,141,72
73440419,171,234,28,152,387,149,71
73445032,169,215,28,148,371,155,71
73449645,158,220,29,141,345,148,70
73454258,154,226,28,141,318,144,70
73458870,157,241,29,138,309,148,70
73463483,149,221,29,174,283,139,69
73468096,142,205,29,213,259,129,69
73472708,153,194,29,221,245,119,69
73477325,159,179,28,263,251,114,69
73481784,161,169,29,276,242,110,69
73486477,161,173,29,301,230,108,68
73491171,154,227,29,328,221,108,68
73495864,175,231,29,321,242,115,73
73500557,179,231,29,300,226,134,74
73505251,209,269,29,275,210,155,74
73509944,248,248,28,261,218,159,73
73514637,239,268,29,249,236,159,73
73519330,230,264,29,229,235,149,72
73524023,282,276,29,243,227,140,72
73528716,308,255,29,234,217,133,71
73533410,307,236,29,218,220,129,71
73538103,285,226,28,245,208,125,71
73542796,261,210,29,306,206,118,70
73547372,242,196,29,367,229,122,70
73552058,224,183,29,460,250,125,69
73556745,225,171,28,442,265,138,69
73561432,258,168,29,408,296,133,69
73566119,301,204,28,372,326,138,69
73570805,371,233,28,345,304,138,74
73575492,416,262,29,316,289,137,74
73580178,405,291,29,291,297,147,73
73584865,394,310,29,274,286,142,72
73589551,367,400,29,266,295,133,72
73594237,360,391,29,251,282,124,71
73598924,334,427,28,237,263,143,70
73603610,337,445,28,228,245,152,70
73608296,333,411,29,232,268,154,69
73612894,323,386,29,263,263,150,69
73617580,351,382,28,255,263,148,69
73622266,345,361,28,234,245,146,69
73626952,341,333,29,220,246,137,69
73631639,314,306,29,212,257,131,68
73636325,300,280,29,208,257,126,68
73641011,305,276,28,202,265,123,68
73645698,319,326,28,193,246,125,67
73650385,325,363,29,187,255,123,67
73655071,332,382,28,188,268,136,67
73659757,315,483,29,196,272,151,68
73664445,358,529,28,183,305,162,75
73674800,343,568,29,163,384,160,73
73679397,398,599,28,169,372,156,72
73684010,456,656,28,174,424,166,80
73688632,731,795,28,164,401,163,92
73693255,777,797,29,153,370,160,94
73697878,920,922,29,142,374,155,102
73702501,921,921,29,136,374,151,107
73707125,897,868,29,133,351,154,105
73711776,822,808,28,133,339,145,102
73716447,780,760,29,128,324,136,100
73721119,729,705,28,125,301,127,97
73725790,694,641,28,117,299,125,95
73730462,653,594,29,110,378,154,93
73735134,780,723,29,106,408,162,94
73739805,819,781,28,106,477,189,101
73744477,808,757,29,103,600,241,99
73749113,810,747,29,97,582,241,96
73753782,749,766,29,93,565,252,97
73758450,757,922,28,89,562,249,104
73763119,763,922,29,108,562,241,104
73767792,872,923,29,108,577,247,111
73772464,898,923,29,111,555,234,114
73777136,822,923,29,120,512,217,111
73781808,767,922,29,129,464,200,107
73786481,736,922,28,130,421,184,104
73791153,689,922,29,130,400,171,102
73795825,627,920,29,135,369,157,100
73800498,575,853,29,133,357,149,99
73805166,521,780,28,129,373,145,96
73809835,479,808,28,125,352,135,93
73814504,506,829,29,129,356,130,93
73819199,520,820,28,135,380,123,92
73823896,566,846,29,140,404,124,113
73828592,581,794,29,147,394,124,124
73833289,534,726,28,141,401,126,121
73837985,493,681,29,143,384,133,118
73842683,459,649,28,140,364,125,140
73847380,417,612,28,142,344,120,166
73852076,379,559,28,134,350,125,160
73856773,345,505,29,129,337,121,157
73861471,315,466,28,124,326,114,152
73866167,299,442,28,124,318,109,146
73870864,280,414,28,122,322,118,140
73875563,257,396,29,117,310,110,135
73880125,248,383,29,118,310,111,130
73884740,241,374,28,115,340,122,126
73889356,226,380,29,120,355,122,129
73893972,217,376,29,119,330,124,145
73898588,214,345,28,123,335,121,155
73903203,198,322,29,120,309,113,154
73907820,182,294,29,115,326,113,155
73912436,168,276,28,113,361,120,161
73917052,157,255,28,113,388,120,154
73921668,154,240,29,112,378,114,150
73926284,144,229,28,115,345,107,146
73930901,152,256,29,122,316,101,142
73935516,167,308,28,118,296,95,137
73940134,168,285,29,111,274,90,132
73944865,165,264,28,105,251,85,127
73949562,160,275,29,99,269,86,126
73954269,156,279,29,94,309,97,124
73958975,146,280,29,90,340,102,120
73963682,160,280,28,86,375,111,116
73968389,161,260,29,85,352,104,115
73973096,155,241,28,81,320,96,115
73977803,143,224,28,78,293,89,117
73982511,133,206,28,75,272,85,117
73987218,126,231,28,72,271,81,119
73991925,130,252,29,69,290,87,119
73996633,122,243,28,67,323,93,120
74001340,125,228,29,65,339,113,121
74006048,126,226,29,63,308,108,120
74010755,120,225,29,61,284,101,120
74015309,111,223,29,66,289,105,118
74020096,108,231,29,84,292,113,116
74024884,103,236,29,120,284,105,112
74029672,98,225,29,117,274,111,108
74034471,93,208,29,116,250,104,106
74039258,87,193,29,117,247,102,103
74044046,82,177,29,136,292,128,100
74048839,78,177,29,154,292,134,98
74053627,95,170,28,185,326,146,96
74058414,101,182,29,194,316,154,93
74063202,116,173,30,218,290,143,91
74068017,146,172,29,216,271,134,89
74072804,220,183,29,217,256,130,89
74077592,297,199,29,203,257,125,93
74082263,290,184,29,188,262,117,92
74087044,269,187,28,179,243,108,90
74091826,258,220,28,171,222,101,87
74096607,242,258,29,158,202,94,87
74101387,221,237,29,147,185,87,87
74106169,202,216,29,141,207,105,86
74110950,186,199,29,137,252,125,89
74115730,171,184,29,134,308,165,95
74120512,158,170,29,126,302,162,141
74125292,146,159,29,120,283,149,167
74130074,171,212,29,112,265,138,162
74134855,202,275,29,106,242,127,156
74139636,248,284,29,102,222,119,150
74144417,247,306,28,110,202,110,145
74149111,253,324,29,107,225,112,141
74153898,247,327,29,101,222,119,137
74158678,237,329,29,96,235,112,132
74163460,223,307,29,90,241,114,128
74168241,205,281,29,87,229,111,122
74173021,189,258,28,104,223,106,118
74177803,173,236,28,152,220,103,113
74182585,159,216,29,177,210,98,111
74187366,148,198,29,225,193,93,109
74192147,136,182,28,292,186,88,106
74196930,126,167,29,315,173,82,103
74201712,117,153,28,301,158,78,100
74206492,109,142,29,287,144,73,97
74211274,102,131,28,265,137,69,95
74216001,95,122,28,244,129,65,93
74220778,90,114,28,227,121,61,91
74225554,87,110,28,209,138,65,89
74230333,104,138,28,192,171,74,88
74235111,117,186,29,177,190,85,86
74239889,131,246,28,164,183,86,89
74244666,149,241,28,152,168,83,91
74249445,169,242,28,142,155,79,92
74254224,157,228,29,133,144,76,91
74259002,145,211,28,126,132,73,93
74263780,134,193,28,119,121,69,92
74268559,125,177,28,112,111,66,97
74273338,116,163,28,106,102,62,100
74278121,108,150,29,102,94,59,98
74282902,101,139,29,97,86,56,96
74287584,94,129,29,95,80,54,94
74292367,89,119,28,90,74,52,92
74297149,83,110,28,89,68,50,90
74301933,79,103,28,90,64,48,89
74306715,75,97,28,92,60,46,87
74311499,71,93,28,89,56,44,87
74316282,68,87,28,88,63,43,85
74321065,66,83,29,87,59,42,83
74325849,67,81,28,84,56,40,84
74330632,75,84,28,80,52,40,96
74335415,78,84,29,77,49,39,105
74340199,74,80,29,74,48,39,109
74344982,70,76,28,72,46,38,106
74349765,68,72,29,70,43,37,105
74354548,65,68,29,67,40,37,103
74359331,61,65,29,66,39,36,101
74364045,61,62,29,67,37,35,99
74368854,57,60,29,68,35,35,96
74373663,55,82,29,66,34,35,92
74378472,60,99,28,65,33,34,90
74383281,67,126,29,64,34,34,89
74388090,70,117,28,61,34,34,86
74392899,66,109,29,61,34,33,86
74397709,64,101,28,99,32,34,103
74402518,61,95,29,149,32,34,117
74407352,58,89,28,185,31,34,159
74412190,56,83,29,183,29,33,160
74416999,55,79,28,232,29,33,152
74421885,53,75,28,221,28,33,146
74426694,51,71,29,210,28,33,141
74431510,50,70,28,193,27,33,135
74436356,49,71,29,178,26,35,130
74440958,48,79,29,165,26,34,126
74445684,46,88,29,155,25,34,122
74450411,46,83,29,144,33,35,118
74455139,45,78,29,137,37,35,116
74459866,45,74,29,128,43,35,114
74464609,44,71,29,119,41,35,112
74469356,43,67,28,112,43,35,117
74474105,43,65,29,106,42,35,115
74478839,45,108,29,100,44,36,114
74483581,58,138,28,96,41,35,114
74488313,76,161,29,91,40,35,111
74493043,84,152,28,87,38,33,106
74497769,83,148,29,82,36,34,103
74502496,88,140,29,79,34,34,100
74507222,88,153,28,79,33,34,98
74512150,86,147,29,78,32,33,96
74517006,81,136,29,76,31,33,103
74521850,76,127,29,74,32,37,110
74526694,72,117,28,83,39,37,107
74531538,69,110,29,126,63,39,104
74536392,66,104,29,137,81,42,101
74541237,65,98,29,141,107,48,98
74546082,63,95,28,133,108,52,96
74550925,60,97,29,124,99,52,94
74555769,63,120,28,116,92,48,92
74560616,74,146,29,109,85,47,90
74565460,89,143,29,102,78,46,89
74570319,86,138,29,96,73,45,90
74575164,81,128,28,93,67,43,104
74580010,76,118,28,96,63,46,114
74584855,73,112,28,112,60,52,122
74589582,69,114,29,132,62,58,188
74594509,66,117,28,141,85,57,208
74599437,64,114,28,130,94,66,198
74604363,69,111,29,123,110,64,188
74609289,71,124,28,115,103,63,178
74614216,79,153,28,110,102,67,170
74619144,80,194,28,104,98,66,162
74624070,92,181,28,101,90,62,156
74628998,87,169,28,95,94,62,149
74633925,83,154,29,98,104,62,146
74638852,78,142,29,97,103,61,162
74643780,74,131,30,98,100,59,165
74648707,70,144,28,93,173,72,175
74653634,69,159,28,90,209,72,167
74658561,83,180,28,87,252,71,161
74663400,81,207,28,86,249,83,153
74668321,104,269,28,94,229,97,146
74673242,130,303,28,110,217,94,141
74678163,126,312,29,128,223,89,135
74683084,125,320,28,139,275,86,130
74688004,116,305,28,142,293,82,126
74692925,110,280,29,151,343,87,121
74697846,105,255,29,141,338,101,118
74702767,98,234,28,133,318,132,123
74707687,92,229,29,130,315,133,131
74712609,92,217,29,130,292,130,139
74717529,93,204,28,122,279,161,149
74722450,92,194,28,130,265,177,145
74727371,86,182,28,142,243,173,140
74732263,81,183,28,144,236,160,134
74737183,90,176,29,143,221,149,129
74742104,95,168,28,140,205,141,124
74747024,91,185,29,170,208,130,119
74751944,103,212,29,195,194,122,116
74756864,115,266,29,209,177,117,124
74761785,124,246,29,202,165,114,152
74766705,116,230,28,223,198,132,160
74771626,109,237,29,246,260,140,164
74776547,114,240,29,279,276,136,156
74781467,117,251,28,272,326,149,156
74786388,115,244,29,252,356,168,166
74791308,114,241,29,237,345,178,160
74796228,106,235,29,219,319,171,153
74801139,109,226,29,202,344,159,147
74806059,106,224,28,188,333,151,141
74810979,100,208,28,194,320,148,136
74815899,94,190,28,200,296,139,132
74820819,88,174,29,196,268,131,130
74825738,83,160,29,185,248,121,134
74830658,78,201,28,174,229,113,138
74835577,80,250,29,162,208,104,138
74840497,88,313,28,202,190,100,144
74845416,87,289,29,229,178,95,140
74850332,82,263,29,240,208,90,136
74855248,77,243,28,229,253,88,131
74860165,75,230,29,218,303,101,126
74865085,74,237,28,200,333,96,123
74869984,74,236,28,188,318,97,127
74874902,83,227,29,176,294,97,125
74879819,79,207,29,195,305,98,137
74884735,74,190,28,206,302,94,137
74889651,71,174,28,236,308,91,161
74894569,68,164,28,222,297,92,162
74905155,74,163,29,186,241,93,149
74909980,70,185,28,172,260,88,145
74914830,70,189,28,171,251,83,138
74919680,66,205,28,183,247,79,133
74924531,66,193,29,187,255,80,130
74929383,64,179,29,181,249,88,127
74934234,61,164,28,182,261,84,128
74939085,58,151,28,190,258,81,130
74943965,56,142,28,231,250,78,137
74948844,55,136,28,279,238,80,156
74953771,54,128,28,276,218,81,176
74958698,52,123,29,256,214,78,176
74963625,53,122,28,238,203,76,169
74968552,53,122,27,223,195,74,161
74973479,52,114,29,206,185,69,153
74978407,51,106,29,190,186,70,147
74983334,49,99,28,176,176,66,143
74988262,47,93,29,162,160,62,146
74993190,47,87,27,150,153,59,165
74998119,46,81,29,139,170,65,161
75003047,45,77,29,130,176,67,163
75007975,45,88,28,124,170,69,189
75012903,52,106,28,127,172,87,196
75017831,58,100,28,129,163,90,197
75022545,56,112,28,127,166,84,198
75027391,62,127,29,124,173,83,188
75032272,75,137,28,116,160,81,180
75037118,77,134,28,112,150,79,174
75041964,73,125,29,109,140,74,168
75046845,69,116,28,103,132,69,164
75051691,66,109,29,107,125,65,160
75056537,64,101,28,113,120,62,172
75061384,61,94,29,116,110,59,174
75066231,58,88,28,135,101,56,168
75071078,56,83,28,137,103,62,166
75075925,54,80,29,148,111,69,196
75080773,54,80,28,167,120,66,231
75085620,53,91,28,162,155,76,222
75090467,57,97,29,151,156,84,211
75095374,60,96,28,140,171,81,201
75100293,66,124,29,138,184,77,191
75105201,77,136,28,133,208,74,184
75110110,75,131,28,132,211,81,176
75115021,71,122,28,188,195,88,170
75119931,68,118,29,220,182,87,171
75124839,65,116,28,261,177,82,200
75129749,62,128,28,261,167,90,237
75134660,62,202,28,246,162,97,228
75139570,91,249,28,232,148,96,218
75144478,93,279,28,214,135,89,207
75149389,105,273,29,206,125,86,197
75154301,122,279,29,194,115,81,188
75159211,116,255,28,195,156,81,178
75164064,113,238,29,206,186,82,170
75169057,107,222,28,216,229,86,163
75174050,100,210,28,225,225,88,158
75179042,94,194,28,271,216,127,154
75184035,89,208,28,338,198,131,152
75189029,90,228,29,353,197,142,155
75194022,105,243,28,336,205,186,154
75199015,234,528,28,308,202,194,148
75204008,293,697,28,282,193,179,145
75209001,416,765,28,262,195,163,147
75213995,456,744,28,248,181,152,142
75218988,429,696,28,239,164,142,135
75223982,390,650,28,230,174,133,130
75228976,359,605,28,217,207,127,125
75233969,335,554,29,209,217,118,122
75238956,312,502,28,200,266,112,118
75243943,284,454,28,192,264,107,115
75248930,293,429,29,180,244,125,111
75253917,325,664,28,166,234,148,109
75258905,400,795,28,153,242,151,108
75263892,524,874,28,152,232,185,117
75268879,527,810,29,146,219,198,116
75273866,483,744,28,147,207,197,115
75278853,439,762,28,147,234,194,116
75283846,413,759,28,138,341,191,112
75288833,386,796,28,143,425,180,128
75293820,349,728,29,158,450,181,142
75298807,318,658,29,158,410,168,150
75303720,331,675,28,161,372,159,162
75308707,348,664,29,181,342,154,164
75313694,373,637,28,174,315,149,158
75318682,382,589,28,170,292,152,156
75323669,400,751,28,166,285,158,162
75328661,416,829,29,165,296,159,157
75333648,461,898,28,159,310,158,150
75338635,456,832,29,151,298,169,144
75343623,415,757,28,141,309,188,140
75348610,402,743,28,133,369,173,138
75353597,427,848,29,124,365,170,141
75358584,522,914,28,117,352,210,142
75363572,610,861,29,139,322,225,137
75368559,611,786,28,168,297,221,132
75373473,617,899,29,187,276,206,134
75378459,677,922,28,188,285,228,133
75383445,706,921,28,201,322,259,134
75388431,764,922,29,223,334,246,142
75393418,740,922,28,220,313,234,137
75398404,679,921,28,233,308,220,132
75403390,653,922,29,239,309,217,128
75408377,690,922,28,245,320,216,127
75413363,676,922,31,227,309,236,128
75418351,692,922,31,210,297,252,127
75423337,632,923,30,199,326,252,135
75428324,658,922,30,190,365,255,152
75433312,673,923,30,213,340,278,173
75438299,635,923,30,204,377,314,180
75443181,704,922,30,202,403,298,173
75448167,684,922,30,191,373,300,166
75453156,637,922,30,197,361,301,168
75458143,685,922,29,187,360,292,164
75463129,667,922,29,175,338,281,159
75468117,712,922,29,164,339,280,158
75473106,675,923,29,157,341,311,152
75478094,662,922,29,147,321,328,155
75483080,637,922,29,139,332,319,166
75488069,650,922,29,147,360,340,179
75493058,659,922,29,146,396,370,185
75498046,665,922,29,137,454,358,181
75503033,732,922,28,130,492,373,173
75508022,813,922,29,123,470,400,179
75512887,820,923,29,115,470,388,177
75517913,811,923,29,120,477,380,175
75522940,896,923,29,140,438,358,183
75527966,913,923,29,150,402,336,176
75532992,830,923,29,149,364,309,174
75538019,774,923,29,150,329,284,177
75543048,721,923,29,150,305,281,176
75548078,706,923,29,145,285,260,168
75553108,686,923,29,146,270,247,169
75558137,678,923,29,163,256,235,164
75563167,617,923,28,156,234,217,159
75568197,556,922,29,160,214,198,152
75573228,498,922,28,161,198,180,146
75578157,457,888,28,162,182,164,140
75583102,421,803,28,160,166,150,137
75588047,382,724,28,156,151,138,132
75592992,346,653,29,148,137,126,130
75597938,314,589,29,142,126,116,126
75602883,285,530,28,155,118,106,121
75607828,259,477,28,193,111,100,117
75612773,236,430,29,228,103,93,114
75617718,215,389,28,216,95,87,110
75622664,197,352,29,208,93,82,107
75627609,180,320,29,215,88,77,104
75632554,165,290,29,222,81,73,101
75637499,152,264,29,213,75,69,99
75642444,140,240,28,195,71,65,98
75647389,130,218,28,179,66,61,109
75652380,120,200,28,172,63,58,126
75657397,111,186,28,240,58,55,173
75662411,103,172,28,341,64,53,215
75667426,98,158,29,420,100,53,217
75672449,91,147,29,462,101,54,213
75677472,85,135,29,458,125,53,205
75682493,81,124,28,417,149,51,196
75687508,76,115,29,389,139,49,186
75692534,72,107,29,356,132,47,175
75697631,68,100,28,330,125,49,167
75702665,65,95,29,326,120,56,159
75707739,62,89,29,300,110,55,157
75712783,60,83,28,273,117,53,178
75717842,57,79,29,324,147,60,179
75722838,56,75,29,461,163,61,241
75727954,54,71,28,592,213,61,278
75733069,53,67,28,625,244,61,269
75738166,52,64,28,577,276,66,263
75743300,54,62,29,534,328,70,252
75748436,53,64,29,498,332,97,240
75753535,54,69,28,455,343,110,262
75758632,52,64,29,429,321,116,287
75763741,53,65,29,408,305,119,318
75768858,54,62,28,378,305,111,362
75773955,56,59,28,385,328,113,416
75779062,55,59,28,364,336,139,420
75784160,55,58,29,340,346,136,410
75789257,56,59,28,334,332,147,413
75794355,69,64,28,339,301,186,395
75799451,77,173,28,335,285,192,393
75804533,154,287,28,369,263,174,382
75809614,204,351,28,337,239,163,361
75814696,222,343,28,323,226,160,340
75819779,221,347,28,316,219,175,323
75824859,226,393,28,319,235,170,306
75829941,242,466,28,337,252,176,297
75835025,249,439,29,331,267,168,287
75840108,258,529,28,310,292,171,282
75845188,280,575,28,287,336,185,384
75850271,341,603,28,282,363,181,390
75855354,325,552,29,392,333,169,386
75860437,296,498,28,529,306,155,377
75865518,272,455,28,555,404,151,360
75870522,248,416,28,569,448,156,340
75875606,230,387,28,626,520,162,323
75880688,224,445,28,616,510,167,309
75885769,245,494,28,604,474,158,292
75890852,245,485,29,551,437,158,281
75895936,244,503,29,495,469,212,291
75901017,289,554,28,451,450,257,325
75906101,308,620,28,407,412,273,379
75911185,330,600,28,368,390,334,494
75916268,337,546,28,333,371,363,502
75921352,306,541,28,368,361,334,528
75926435,287,607,28,411,357,306,545
75931518,315,623,28,494,357,283,552
75936602,418,632,28,477,426,263,556
75941610,499,583,28,465,408,247,560
75946720,466,563,29,444,385,225,547
75951831,571,613,28,430,366,207,514
75956957,564,715,29,389,340,198,481
75962068,539,738,28,352,324,203,452
75967178,500,729,28,323,344,224,429
75972288,453,730,29,304,408,229,408
75977399,456,671,28,279,448,237,382
75982525,443,646,28,253,442,233,359
75987636,448,649,28,234,404,224,349
75992746,446,609,28,223,386,223,340
75997856,510,598,28,261,350,250,324
76002967,595,660,28,335,323,254,332
76008077,668,662,29,406,391,324,328
76013050,739,693,28,443,412,370,313
76018160,765,811,28,483,463,374,300
76023271,826,922,28,489,490,497,291
76028381,844,922,29,494,457,564,282
76033491,850,922,28,460,449,554,285
76038601,919,922,28,430,446,589,274
76043712,908,923,28,390,422,556,265
76048822,921,923,28,374,413,554,250
76053932,921,922,28,466,385,520,246
76059042,920,922,28,497,362,527,242
76064153,863,923,29,479,444,514,247
76069263,921,923,29,490,455,483,253
76074373,921,923,28,536,535,464,239
76079483,922,923,28,571,700,434,236
76084438,921,923,28,608,668,405,225
76089539,922,923,29,651,751,417,223
76094641,922,923,29,725,720,400,219
76099743,922,923,29,775,760,402,209
76104845,922,923,28,771,777,488,203
76109947,922,923,28,912,877,512,196
76115049,921,923,28,876,922,524,201
76120150,922,923,28,920,877,557,208
76125252,921,923,28,920,799,525,206
76130354,921,923,28,920,737,506,196
76135456,922,923,28,921,814,466,186
76140559,921,923,28,921,849,428,179
76145662,921,923,28,921,883,426,176
76150662,858,923,29,921,818,413,176
76155678,774,924,29,921,758,387,177
76160696,708,923,28,921,704,356,171
76165714,640,922,28,921,640,322,163
76170730,588,922,28,921,584,293,159
76175747,535,889,28,921,533,265,168
76180766,488,805,28,921,485,243,172
76191451,393,673,28,921,389,200,154
76196391,356,608,28,921,350,181,146
76201348,323,549,28,921,316,166,142
76206306,294,495,28,921,287,152,137
76211264,277,447,29,921,260,139,131
76216223,258,405,28,920,239,131,126
76221182,237,368,28,858,216,120,122
76225811,218,335,29,781,197,111,119
76230354,201,306,29,711,182,104,115
76234953,185,281,28,645,171,96,112
76239552,170,256,29,586,171,90,109
76244151,157,235,28,536,186,85,106
76248750,146,215,28,485,173,82,104
76253349,136,199,28,445,179,81,101
76257948,128,182,29,413,206,87,99
76262547,124,191,29,395,236,96,96
76267145,123,212,28,365,235,102,95
76271745,143,269,28,340,215,97,93
76276344,160,261,28,313,201,97,93
76280944,160,245,28,287,189,93,93
76285543,172,225,28,265,179,90,91
76290143,163,207,28,243,166,87,88
76294590,154,198,29,224,154,83,85
76299269,143,187,29,206,141,80,84
76303948,133,172,28,192,130,77,82
76308627,123,159,29,177,137,73,81
76313307,115,149,28,164,191,71,80
76318011,107,141,28,153,234,74,79
76322690,100,133,28,143,237,73,78
76327369,94,124,29,138,218,68,77
