time,EMG1,EMG2,EMG3,EMG4,EMG5,EMG6,EMG7
7645348,39,51,28,49,21,31,65
7650062,39,51,29,48,21,31,63
7654958,41,53,29,49,21,31,62
7659805,41,53,29,49,21,32,60
7664667,42,53,29,50,21,32,60
7669536,41,51,29,50,21,31,60
7674382,41,50,29,49,22,32,60
7679234,40,48,29,49,21,31,60
7684102,40,47,29,49,21,31,60
7688948,40,46,29,48,21,31,61
7693795,40,45,29,48,21,31,61
7698642,40,44,28,48,21,31,60
7703500,40,55,29,48,21,31,60
7708347,39,67,29,48,21,31,58
7713214,41,69,28,48,21,31,57
7718060,40,66,28,49,21,31,57
7722851,40,62,29,48,21,31,56
7727778,40,61,28,48,21,31,55
7732708,40,59,28,48,21,31,54
7737635,40,60,29,48,21,31,55
7742591,40,57,29,48,21,31,56
7747525,40,56,29,48,21,31,56
7752453,39,53,28,47,21,31,56
7757380,39,51,28,47,21,31,55
7762341,39,50,28,47,21,32,54
7767268,39,48,29,46,21,31,54
7772195,39,47,28,47,21,31,54
7777124,39,49,28,47,21,31,53
7782054,41,48,29,48,21,31,53
7786981,42,53,28,48,21,31,52
7791919,41,55,29,47,21,31,52
7796849,41,55,28,47,21,31,51
7801779,41,53,29,47,21,31,50
7806706,41,52,28,47,21,31,52
7811627,40,51,28,47,21,31,53
7816549,40,49,28,47,21,31,53
7821471,40,48,29,47,21,31,54
7826390,39,46,28,47,21,31,55
7831312,40,45,28,47,21,31,56
7836234,40,45,28,47,21,31,56
7841155,39,44,29,47,21,31,57
7846076,39,43,29,47,21,31,58
7850998,39,45,28,47,22,31,59
7855920,44,57,28,47,21,32,58
7860842,44,57,28,47,21,32,59
7865764,45,57,29,48,22,31,59
7870686,44,56,28,47,21,31,60
7875609,44,54,29,47,21,31,60
7880535,43,53,28,47,21,31,61
7885457,43,51,28,47,21,31,61
7890370,42,49,28,47,21,31,61
7895322,41,48,28,47,21,31,61
7900267,41,47,28,47,21,31,62
7905226,41,45,29,47,21,31,62
7910153,41,44,28,47,21,31,62
7915075,40,44,28,47,21,31,62
7919996,40,43,28,46,20,31,62
7924918,39,43,28,46,21,31,63
7929839,41,47,28,47,21,30,63
7934760,45,56,29,46,21,31,63
7939686,49,57,28,46,21,31,63
7944607,48,58,28,46,21,30,63
7949529,47,56,28,46,21,30,64
7954451,46,54,28,46,21,30,64
7959372,44,52,28,47,21,30,64
7964294,44,51,29,46,21,30,64
7969215,44,52,29,46,21,31,64
7974136,43,50,28,46,21,30,64
7979056,42,49,28,46,21,31,64
7983976,42,48,28,47,21,31,64
7988896,41,46,28,46,21,31,64
7993815,41,45,28,46,21,31,64
7998735,41,44,28,46,21,31,64
8003654,41,47,29,46,22,31,64
8008574,41,51,28,46,21,31,65
8013493,42,53,28,46,21,31,65
8018413,42,52,28,46,21,31,65
8023333,41,50,29,46,21,31,65
8028252,41,49,28,46,21,31,65
8033172,41,50,28,46,21,31,65
8038091,40,48,28,46,21,31,64
8043011,40,47,28,46,21,31,65
8047930,40,46,28,46,21,31,65
8052850,40,45,28,46,21,30,65
8057752,41,44,28,46,21,31,65
8062672,39,43,29,46,21,31,65
8067591,39,42,29,46,21,31,65
8072511,39,42,28,46,21,31,65
8077432,39,43,28,46,21,31,65
8082352,49,54,28,46,21,31,65
8087272,54,60,29,47,21,30,65
8092192,53,59,29,47,21,31,65
8097114,51,56,28,47,21,31,65
8102034,50,54,29,47,21,31,65
8106954,49,52,28,46,21,31,65
8111875,47,50,29,47,21,31,65
8122519,46,48,28,46,21,31,65
8127326,45,46,28,47,21,31,65
8132179,44,46,28,47,20,32,65
8137034,43,45,28,48,21,31,65
8141889,43,44,28,49,21,31,75
8146744,42,43,29,52,21,32,77
8151478,42,42,28,51,21,32,76
8156362,41,42,29,50,21,31,75
8161252,43,46,29,50,21,31,90
8166185,41,49,29,50,21,31,125
8171117,41,48,29,50,21,31,127
8176050,41,47,28,54,21,31,143
8180982,40,46,27,54,21,31,156
8185914,40,46,28,55,22,31,181
8190846,40,46,28,74,21,31,244
8195779,40,45,29,92,21,31,251
8200711,40,45,28,106,21,31,238
8205644,40,45,28,133,21,31,226
8210577,39,44,28,129,21,30,220
8215511,39,47,28,125,21,31,210
8220444,49,53,28,117,21,30,202
8225377,53,62,29,110,21,32,191
8230112,53,63,28,105,21,31,180
8234963,52,61,29,100,21,31,170
8239814,49,58,28,94,21,31,161
8244665,49,57,29,89,21,31,153
8249516,48,55,29,85,21,32,147
8254406,47,53,29,82,21,32,141
8259292,46,52,28,79,21,32,135
8264176,45,51,29,76,21,31,135
8269095,44,50,29,73,21,31,137
8273946,45,49,28,71,21,31,131
8278798,45,49,29,69,21,31,130
8283649,65,67,29,67,21,31,127
8288501,72,84,28,66,21,31,123
8293353,70,85,29,66,21,31,118
8298206,66,81,29,67,21,31,114
8303058,64,76,29,68,21,31,111
8308092,61,72,29,67,22,31,109
8313012,58,69,29,66,20,31,106
8317925,56,66,28,66,21,31,103
8322836,54,62,29,69,21,32,103
8327747,53,60,29,70,21,32,101
8332660,51,57,29,69,21,31,102
8337585,51,68,29,67,21,31,106
8342496,68,70,28,68,21,31,110
8347407,74,70,28,66,21,31,113
8352321,80,80,28,64,23,30,112
8357246,82,77,28,65,28,31,111
8362156,78,73,28,65,33,30,110
8367069,73,70,29,64,39,31,111
8371983,70,67,28,65,38,30,112
8376896,66,64,29,64,39,30,113
8381807,67,62,28,65,46,31,116
8386721,71,116,28,64,45,30,124
8391517,103,164,29,65,50,30,134
8396513,158,231,28,64,68,31,138
8401507,191,233,28,62,78,31,133
8406503,178,242,28,61,94,32,130
8411498,174,239,28,60,121,32,132
8416493,179,230,29,61,133,32,131
8421489,174,214,28,61,128,32,129
8426484,160,195,28,59,118,32,128
8431479,147,180,29,58,109,32,128
8436482,136,164,29,61,104,32,126
8441478,125,150,28,64,103,32,124
8446477,121,141,28,64,111,32,124
8451494,118,161,28,64,107,32,127
8456518,120,180,28,66,102,31,134
8461513,126,190,28,65,96,31,136
8466483,132,241,29,63,91,31,131
8471471,146,239,28,62,94,31,125
8476460,146,226,28,61,96,31,119
8481448,135,213,28,61,91,31,115
8486437,126,197,29,65,88,31,113
8491432,123,192,28,64,87,31,113
8496438,134,211,28,63,81,33,114
8501426,131,241,29,62,79,32,117
8506415,129,258,28,61,95,36,122
8511424,158,276,27,59,147,39,134
8516413,197,309,28,58,187,38,136
8521401,210,379,28,56,199,38,132
8526390,221,361,28,55,211,38,127
8531379,239,412,28,54,199,38,122
8536384,233,412,28,53,183,38,117
8541372,217,377,28,52,170,36,114
8545476,203,344,28,52,173,36,113
8550464,188,314,28,51,161,35,110
8555452,172,302,28,50,146,34,109
8560441,159,298,29,50,133,34,110
8565429,158,283,28,51,123,33,114
8570417,160,287,28,51,117,33,116
8575405,154,292,28,52,109,34,111
8580393,143,284,28,51,114,33,108
8585381,134,265,29,50,107,33,103
8590369,125,263,29,50,101,33,101
8595358,118,254,28,49,93,33,99
8600345,112,248,29,49,99,34,96
8605333,109,247,29,49,99,33,93
8610333,102,270,29,49,101,33,92
8615321,112,285,28,49,107,33,95
8620201,106,333,28,48,121,32,93
8625185,100,342,28,49,122,32,90
8630169,106,329,28,49,112,32,89
8635155,104,329,28,49,103,31,87
8640140,96,349,28,50,98,31,86
8645126,99,358,28,50,90,31,86
8650112,94,355,28,49,83,32,84
8655101,96,334,28,49,77,31,82
8660088,92,355,28,49,72,31,81
8665074,92,362,28,49,69,31,80
8670062,95,365,28,49,66,33,78
8675051,97,346,28,50,73,32,78
8680037,92,317,28,51,77,32,76
8685023,86,298,28,50,82,32,75
8690012,87,275,28,50,77,31,74
8695002,82,267,28,50,73,31,71
8699898,79,250,29,49,70,31,71
8704886,75,238,28,49,66,30,70
8709875,76,242,29,49,66,32,68
8714863,75,228,28,49,64,32,67
8719850,74,219,29,48,59,31,67
8724839,69,205,28,48,57,32,66
8729828,67,203,28,48,57,32,65
8734816,72,212,28,48,54,32,65
8739804,70,199,28,48,52,32,65
8744792,74,184,28,47,48,32,65
8749781,70,236,28,47,48,32,65
8754770,69,284,28,47,52,32,65
8759759,69,385,28,47,52,32,64
8764752,77,369,28,47,50,32,64
8769744,81,342,28,47,53,32,64
8774737,77,321,28,47,50,32,65
8779728,76,313,28,47,47,32,65
8783837,72,309,28,46,47,32,66
8788858,75,284,28,47,44,33,65
8793878,78,264,29,46,42,36,65
8798899,80,258,28,47,40,36,65
8803920,77,240,28,47,38,37,66
8808941,78,240,29,46,36,38,65
8813962,78,236,29,46,35,44,66
8818983,78,225,28,46,34,50,65
8824004,76,207,28,46,40,51,65
8829025,75,192,28,46,43,52,65
8834046,70,176,28,48,50,50,65
8839066,67,163,28,48,61,48,65
8844087,65,150,28,48,74,46,65
8849108,72,169,28,48,77,43,65
8854128,77,177,28,47,73,43,65
8859149,77,169,28,48,82,41,65
8863968,79,174,28,47,81,40,66
8868904,84,175,28,47,84,39,65
8873840,85,173,28,47,86,40,65
8878776,81,178,28,48,100,40,65
8883717,77,182,28,48,121,38,65
8888655,73,171,28,48,116,37,65
8893609,69,160,28,48,105,37,65
8898545,66,148,28,49,98,36,65
8903522,68,149,28,51,94,35,65
8908499,70,162,27,51,88,34,65
8913455,77,171,28,50,86,34,65
8918402,78,157,28,50,101,34,66
8923338,81,167,28,49,104,34,65
8928280,78,172,28,49,97,33,65
8933232,82,194,29,49,99,33,66
8938182,87,213,28,49,93,33,66
8943261,82,195,28,51,85,32,66
8948266,77,177,28,50,80,33,66
8953269,73,163,28,50,80,33,66
8958272,69,149,28,49,87,33,65
8963322,66,139,28,49,104,34,66
8968358,72,142,28,49,100,34,65
8973363,86,155,28,48,117,34,66
8978370,98,162,28,48,117,33,66
8983385,111,152,28,48,109,33,65
8988388,106,146,28,48,100,33,64
8993409,99,144,28,47,93,32,64
8998412,97,149,28,47,86,32,65
9003415,90,137,28,48,79,32,65
9008417,85,127,28,50,74,32,65
9013421,80,117,28,51,69,32,65
9018423,76,108,28,51,64,32,65
9023435,72,101,28,52,59,32,64
9028284,68,94,28,52,59,32,65
9033372,65,88,28,51,56,32,65
9038457,62,85,28,51,56,32,65
9043542,69,93,28,50,62,32,65
9048643,75,106,28,49,74,31,65
9053731,72,103,28,49,73,32,65
9058824,69,96,28,49,72,32,66
9063910,65,89,28,49,67,32,66
9068998,62,84,28,48,62,32,66
9074086,60,78,29,48,58,32,66
9079171,57,74,28,49,54,31,66
9084258,55,70,28,48,53,32,66
9089346,53,66,28,48,76,33,66
9094433,53,63,28,48,93,34,66
9099519,50,61,28,48,100,33,66
9104607,49,58,28,48,93,33,66
9109695,48,56,28,47,86,33,65
9114645,47,54,28,47,80,32,66
9119723,46,52,28,48,74,32,66
9124802,45,50,28,47,68,32,66
9129882,44,49,29,47,63,32,66
9134962,44,48,28,46,58,32,66
9140042,43,46,28,47,56,32,66
9145122,43,46,29,47,52,32,69
9150225,42,47,28,47,64,34,75
9155331,42,57,28,46,75,34,74
9160411,52,71,28,47,91,34,73
9165490,60,100,28,47,90,33,73
9170570,63,96,29,48,89,33,72
9175671,64,115,28,49,82,33,72
9180751,73,126,29,51,78,32,71
9185831,86,121,29,51,81,32,70
9190911,81,113,28,51,76,32,70
9195972,76,108,29,55,69,32,71
9201052,71,103,28,62,65,32,70
9206131,68,97,29,65,64,32,69
9211210,65,92,29,63,61,32,69
9216290,62,86,28,62,70,33,71
9221369,62,83,29,60,87,35,74
9226449,78,90,29,59,111,35,77
9231528,87,101,29,57,116,34,76
9236608,83,96,29,57,115,34,76
9241687,81,117,28,59,107,33,78
9246767,95,145,28,57,98,33,81
9251847,97,138,28,56,92,33,78
9256926,90,128,29,56,94,33,76
9262005,85,135,28,55,107,33,77
9267085,83,160,28,54,117,34,76
9272165,87,203,28,54,123,34,77
9277244,102,192,29,53,128,35,76
9282261,96,184,28,53,144,35,79
9287337,105,185,29,53,165,40,84
9292413,102,186,29,52,155,40,84
9297490,98,193,28,52,142,39,85
9302567,100,222,28,53,133,38,84
9307644,106,213,29,53,124,37,81
9312720,98,206,28,55,117,37,80
9317798,96,204,28,54,109,36,80
9322875,94,204,28,55,112,35,80
9327953,106,325,28,54,125,34,85
9333030,154,414,29,52,117,35,95
9338106,216,490,28,51,123,34,96
9343183,225,492,28,51,138,35,93
9348259,269,474,28,51,128,34,90
9353336,261,437,28,52,117,35,89
9358414,238,439,28,56,107,34,87
9363352,224,422,28,55,99,34,85
9368429,213,418,28,55,94,33,84
9373507,194,390,28,55,107,33,83
9378586,178,355,29,53,108,33,84
9383663,170,341,28,54,100,33,87
9388740,190,404,28,52,99,36,92
9393830,244,508,28,52,121,36,103
9404628,337,572,28,54,135,34,100
9409592,349,588,28,53,127,34,97
9414603,335,585,28,52,116,33,95
9419615,330,545,28,52,106,34,93
9424627,324,598,29,51,99,33,90
9429640,321,580,28,51,91,34,88
9434654,310,542,28,51,89,33,86
9439667,284,501,28,50,110,34,85
9444663,265,454,28,50,124,37,84
9449754,246,442,28,50,152,37,85
9454844,283,456,28,49,162,40,88
9459935,310,455,28,50,149,39,86
9465025,311,469,28,50,137,38,85
9470116,318,450,28,52,133,37,87
9475206,315,474,28,51,123,36,90
9480296,295,439,28,50,112,36,88
9485387,291,412,28,50,102,37,86
9490478,312,397,28,52,93,37,84
9495569,294,396,28,52,85,36,83
9500660,282,385,28,50,78,35,81
9505752,276,406,29,51,72,35,80
9510843,265,399,28,50,68,34,79
9515934,242,364,28,50,62,34,78
9521026,228,334,28,50,58,34,78
9525899,217,306,28,50,54,34,76
9530906,229,279,28,49,51,34,75
9535913,249,265,28,50,49,33,74
9540929,254,242,28,51,45,33,74
9545951,239,221,28,50,43,32,73
9550962,274,204,28,50,41,32,72
9555988,264,194,28,49,38,32,72
9560995,260,183,28,49,37,32,71
9566003,257,179,28,49,35,32,71
9571011,250,168,28,49,34,32,71
9576019,235,155,28,48,32,32,70
9581028,215,142,28,48,32,32,70
9586037,199,131,28,48,30,33,69
9591045,185,121,28,48,29,33,69
9596053,169,116,28,48,28,32,69
9601061,155,110,29,48,28,32,69
9605608,149,104,28,49,26,32,69
9610186,138,100,28,49,26,32,68
9614790,129,106,29,49,26,32,69
9619393,124,110,29,48,25,31,68
9623998,115,108,28,48,25,31,68
9628603,108,109,29,48,24,32,68
9633206,101,105,28,48,24,32,68
9637810,95,107,28,48,24,32,67
9642416,89,102,28,48,23,33,67
9647020,85,95,29,47,23,35,66
9651623,80,89,29,47,23,34,67
9656229,76,84,29,47,22,34,67
9660834,72,79,28,47,22,33,67
9665438,69,75,29,47,22,33,67
9670043,66,71,29,47,22,33,66
9674648,63,68,28,47,22,34,66
9679235,61,65,28,47,22,33,66
9683919,58,61,28,49,22,34,66
9688604,56,60,28,49,21,34,66
9693290,54,58,28,52,22,33,66
9697975,53,55,28,51,21,33,66
9702660,51,53,28,51,21,33,66
9707345,50,52,28,50,21,35,66
9712030,49,50,28,50,21,33,66
9716716,48,49,29,50,22,35,66
9721401,47,48,29,50,22,36,66
9726087,46,47,28,49,21,36,66
9730773,45,45,28,49,21,36,66
9735459,45,44,28,49,21,36,65
9740146,44,44,28,48,21,35,65
9744831,43,44,28,48,21,35,65
9749518,42,43,28,48,21,34,66
9754204,42,42,28,48,21,34,65
9758890,42,42,28,48,21,34,66
9763568,41,41,28,48,21,33,65
9768245,41,41,28,47,21,33,65
9772923,41,40,28,47,21,33,65
9777601,40,39,28,47,21,32,65
9782279,40,39,29,47,21,32,65
9786956,40,39,28,47,21,32,65
9791634,40,39,29,46,21,32,66
9796317,40,39,28,47,21,32,66
9800995,40,38,29,47,21,32,66
9805673,39,38,28,47,21,32,66
9810351,39,38,28,49,21,32,66
9815029,39,38,29,51,21,32,66
9819707,39,38,28,51,21,32,66
9824384,39,37,28,51,21,32,66
9829062,39,37,28,54,21,32,67
9833740,39,38,28,54,21,32,66
9838417,39,37,29,53,21,31,66
9842948,38,37,29,54,21,32,66
9847626,38,38,29,54,21,32,66
9852303,38,37,29,53,21,32,66
9856981,39,37,29,53,21,32,67
9861658,38,37,28,52,21,32,66
9866336,37,37,29,51,21,31,65
9871013,38,38,29,51,22,32,66
9875690,38,37,28,51,20,32,64
9880367,38,37,29,51,21,32,64
9885044,38,37,30,50,21,31,63
9889721,38,37,29,52,21,31,62
9894399,38,37,29,51,21,31,62
9899076,38,37,29,51,21,31,60
9903753,38,37,29,50,21,31,61
9908431,38,37,29,50,21,31,61
9913109,38,37,29,50,21,31,61
9917786,38,37,29,51,21,31,62
9922336,39,36,29,51,21,31,62
9927014,38,37,29,50,21,31,62
9931690,38,36,29,50,22,31,62
9936366,38,37,28,49,21,31,63
9941045,38,36,29,49,22,31,63
9945722,38,36,28,51,22,31,63
9950398,38,36,29,50,21,31,63
9955076,38,36,28,51,21,31,63
9959755,38,37,28,50,21,31,64
9964432,38,38,29,53,22,31,64
9969108,39,40,28,52,21,30,64
9973787,38,40,28,52,21,31,64
9978466,38,40,28,51,21,31,63
9983143,39,40,28,50,21,31,64
9987821,38,39,29,49,21,31,64
9992500,38,39,28,50,21,31,64
9997178,38,38,28,50,21,30,64
10001716,38,38,28,49,21,32,64
10006395,37,38,28,49,21,31,64
10011073,38,38,28,50,21,31,65
10015751,38,38,29,50,22,31,64
10020430,38,38,29,49,31,31,62
10025111,38,38,28,50,32,31,61
10029793,38,37,28,51,37,32,60
10034475,38,48,29,53,37,32,60
10039155,41,58,28,52,36,32,61
10043837,50,77,29,51,34,31,63
10048519,53,73,28,50,33,32,62
10053201,51,70,28,50,31,31,62
10057883,49,72,29,50,31,31,62
10062565,50,71,28,50,29,30,61
10067247,49,68,28,49,29,31,61
10071929,48,65,29,49,32,31,60
10076587,47,62,28,49,50,31,60
10081298,46,59,28,50,73,32,60
10086009,45,57,28,51,78,33,60
10090719,45,80,29,52,77,34,61
10095430,59,104,29,52,84,34,61
10100141,59,113,28,51,88,36,60
10104852,63,123,28,50,87,35,60
10109562,83,152,28,50,94,35,61
10114273,105,152,29,50,94,34,62
10118983,115,147,28,51,128,35,62
10123694,112,166,29,53,139,35,62
10128404,110,172,28,53,165,35,63
10133115,104,160,29,57,162,34,63
10137825,98,150,28,63,152,34,63
10142536,94,146,28,64,144,34,63
10147246,98,141,29,64,133,34,63
10151758,92,145,28,63,152,35,63
10156417,93,137,29,64,236,43,64
10161047,91,141,28,63,268,48,64
10165693,103,144,28,61,284,48,64
10170357,105,145,29,64,292,53,64
10174995,109,145,29,62,286,53,64
10179622,113,193,29,60,278,52,64
10184250,132,191,28,59,284,53,64
10188877,127,180,28,58,269,53,64
10193505,125,169,28,57,258,50,64
10198132,124,164,29,56,243,49,64
10202784,117,160,28,55,223,48,64
10207443,109,156,28,55,209,47,64
10212112,116,184,28,54,197,46,64
10216740,114,201,29,55,191,44,65
10221483,116,238,29,55,215,45,64
10226187,110,237,28,54,208,46,65
10230927,106,249,28,53,219,45,64
10235660,114,229,29,52,220,46,64
10240375,123,221,29,52,206,45,64
10245090,116,211,28,53,202,43,64
10249804,108,195,29,53,187,42,64
10254519,104,180,28,57,179,42,62
10259242,99,209,28,56,181,42,62
10263958,115,232,28,55,166,41,62
10268672,116,278,29,54,163,41,62
10273387,110,273,28,54,166,44,62
10278103,117,254,28,55,177,47,62
10282818,109,248,29,55,211,52,63
10287533,110,277,28,54,221,61,62
10292191,117,265,29,53,213,58,64
10296989,131,261,28,53,203,58,67
10301786,123,267,28,52,194,56,67
10306581,114,262,28,53,217,56,66
10311377,107,265,28,57,231,65,67
10316175,100,243,28,57,262,66,66
10320971,94,223,28,57,257,68,66
10325766,87,203,28,57,239,66,65
10330564,83,187,29,57,230,63,64
10335362,78,192,28,60,221,69,63
10340158,85,204,29,70,204,66,63
10344954,85,227,28,69,193,64,63
10349752,90,211,29,66,186,61,64
10354550,88,198,28,66,179,62,63
10359346,84,195,28,64,207,65,63
10364144,81,196,29,62,197,67,63
10368805,79,215,28,61,208,65,63
10373594,78,197,28,62,214,69,63
10378384,74,181,28,67,200,66,62
10383174,69,166,28,73,184,62,61
10387964,67,154,28,80,184,60,60
10392758,65,143,28,76,195,60,58
10397548,61,141,28,73,198,57,58
10402338,59,140,29,76,191,60,59
10407128,57,144,28,83,198,58,60
10411930,67,144,29,81,200,56,60
10416720,66,150,28,78,190,54,61
10421529,76,142,28,86,176,53,61
10426319,73,134,28,93,169,52,61
10431115,69,124,28,98,163,50,62
10435906,65,115,28,97,149,49,62
10440622,63,108,28,97,138,48,62
10445411,60,100,28,99,137,47,62
10450201,58,94,28,104,165,56,63
10454990,56,88,28,99,167,56,63
10459779,54,84,28,96,184,61,63
10464569,52,80,28,93,192,66,63
10469358,52,76,28,88,195,63,62
10474147,51,77,28,84,200,61,64
10478937,50,77,28,86,181,58,64
10483726,49,73,28,98,168,55,64
10488515,48,70,28,115,152,53,64
10493304,47,67,28,119,139,50,64
10498094,46,64,28,112,128,49,63
10502883,45,62,29,108,120,47,62
10507672,44,58,28,103,116,46,62
10512461,44,56,28,97,119,46,62
10517143,43,54,28,96,112,45,63
10521930,42,52,28,109,115,43,63
10526718,42,51,28,111,110,42,65
10531505,42,50,28,115,104,41,66
10536293,41,48,28,111,96,39,67
10541080,41,47,28,111,88,38,69
10545868,41,46,28,110,81,37,70
10550655,40,45,28,109,85,37,72
10555443,40,44,28,104,95,38,73
10560231,40,43,28,101,90,36,74
10565018,40,42,29,110,89,36,74
10569806,40,42,28,108,86,36,76
10574598,39,41,28,131,81,35,76
10579386,39,41,28,159,74,34,77
10584173,39,40,29,174,69,34,78
10588962,40,40,28,175,64,33,79
10593610,39,40,28,176,65,33,80
10598397,39,39,29,179,62,33,81
10603186,39,39,28,180,59,33,83
10607975,38,38,28,185,57,32,84
10612763,38,38,28,224,58,32,86
10617551,38,38,29,297,58,32,87
10622341,38,38,29,294,64,32,89
10632799,38,38,28,361,58,32,93
10637498,38,38,28,377,55,32,97
10642222,38,37,29,511,52,32,99
10646947,38,37,28,519,49,32,103
10651672,38,37,28,472,46,32,106
10656398,38,37,28,441,44,31,109
10661124,38,37,29,410,50,32,113
10665850,38,37,28,380,59,32,116
10670604,38,37,29,348,61,32,120
10675256,38,37,28,350,60,32,123
10680071,38,38,28,525,56,33,127
10684887,38,39,28,607,53,32,131
10689703,38,39,28,689,50,31,135
10694518,38,39,28,836,49,31,142
10699334,38,41,28,799,48,31,146
10704150,38,42,29,785,52,32,149
10708966,38,41,28,734,53,31,154
10713782,38,41,28,689,49,31,157
10718599,38,40,28,649,47,31,161
10723415,38,40,28,598,44,30,165
10728232,38,40,28,544,42,30,170
10733049,38,39,28,491,41,30,174
10737865,39,39,28,452,38,30,178
10742681,38,38,29,414,36,30,182
10747324,38,38,28,383,36,30,186
10752059,38,38,29,352,35,30,189
10756793,38,39,28,326,35,30,192
10761527,38,37,28,310,34,29,194
10766268,38,37,28,330,33,30,195
10771002,38,37,28,363,32,30,197
10775737,38,37,28,333,31,29,197
10780471,38,37,28,316,30,28,197
10785206,38,37,28,298,28,30,196
10789941,38,37,28,275,28,31,193
10794676,38,37,28,252,27,32,193
10799411,38,38,29,233,26,32,191
10804147,38,37,29,214,26,32,185
10808882,38,37,28,197,25,31,183
10813617,38,37,28,182,25,31,180
10818353,38,38,29,168,24,32,175
10823159,38,40,30,155,24,33,176
10828006,38,44,29,144,24,32,176
10832854,38,43,29,134,24,32,169
10837705,38,43,28,124,23,32,162
10842554,38,41,29,116,23,31,161
10847401,38,41,28,109,23,31,158
10852250,38,41,29,103,23,32,153
10857100,38,40,28,96,23,32,147
10861949,38,39,29,92,22,32,141
10866797,38,40,29,87,22,32,136
10871647,38,39,29,82,22,32,131
10876497,38,39,28,79,22,32,128
10881346,39,39,29,76,22,33,125
10886195,39,38,29,73,22,32,121
10891045,38,38,29,70,22,32,116
10895878,38,38,29,68,21,32,113
10900807,38,38,29,65,21,32,109
10905738,37,38,29,64,21,32,105
10910668,38,37,29,63,21,32,101
10915599,38,37,29,61,21,32,97
10920530,38,37,29,60,21,31,94
10925460,38,37,29,59,21,32,92
10930391,38,37,29,58,21,31,90
10935322,38,37,28,56,21,31,89
10940271,38,37,29,55,21,31,87
10945202,38,37,29,54,21,31,85
10950134,38,37,28,53,21,31,84
10955073,38,37,28,53,22,31,83
10960005,38,37,29,52,22,30,81
10964937,38,37,29,52,22,31,80
10969868,38,36,29,52,22,30,79
10974800,38,36,28,50,22,30,79
10979583,38,37,29,50,22,31,77
10984500,37,37,29,50,22,30,77
10989416,38,36,28,49,22,30,76
10994333,38,36,28,49,23,30,74
10999250,38,36,29,49,22,30,74
11004166,38,36,29,50,22,30,73
11009083,37,36,28,49,22,30,72
11014009,38,36,29,53,22,30,70
11018926,38,36,28,52,22,30,70
11023885,38,36,29,52,22,30,67
11028837,38,36,28,51,26,30,65
11033754,38,37,28,51,28,30,65
11038671,38,37,28,50,30,31,66
11043588,38,37,29,50,30,31,65
11048576,38,37,29,50,30,30,66
11053492,38,37,29,50,35,30,66
11058391,38,37,28,51,36,31,66
11063308,38,36,28,52,36,30,66
11068224,38,37,28,55,35,30,66
11073140,38,36,28,54,34,30,66
11078057,38,37,28,53,33,30,66
11082973,38,37,29,55,37,30,66
11087889,38,38,28,55,35,31,66
11092806,38,36,28,55,37,31,66
11097722,38,37,29,54,36,31,66
11102638,38,37,28,55,35,31,66
11107555,38,37,28,54,33,31,65
11112471,38,37,28,53,31,32,65
11117387,39,37,28,52,31,32,65
11122303,38,37,28,52,30,32,65
11127220,37,37,29,52,29,32,65
11132136,38,36,29,52,28,32,66
11137070,38,37,28,52,28,32,68
11141857,38,36,28,51,26,31,70
11146801,37,35,29,51,26,32,72
11151748,38,36,28,52,25,31,74
11156694,38,37,28,50,25,31,77
11161639,38,36,28,50,25,31,79
11166584,38,36,28,50,24,31,83
11171532,39,36,28,51,24,31,85
11176478,38,36,28,50,24,31,87
11181423,38,36,28,50,23,31,89
11186369,38,36,28,50,23,31,92
11191317,38,36,28,50,23,31,94
11196263,38,36,28,53,23,31,96
11201207,38,36,28,57,23,31,98
11206155,38,36,28,59,22,30,100
11211102,38,37,28,60,22,30,101
11216048,38,36,28,62,22,31,102
11220930,38,36,29,66,22,31,103
11225878,38,36,28,65,22,30,104
11230825,38,36,29,65,22,30,104
11235771,38,36,28,63,21,30,105
11240719,37,36,28,62,21,30,106
11245667,38,36,29,61,21,30,106
11250614,38,38,28,59,21,30,117
11255562,38,41,29,57,21,30,121
11260512,37,49,28,56,22,30,120
11265463,39,49,29,56,22,30,120
11270415,39,47,29,55,22,30,121
11275365,39,47,29,54,21,30,120
11280316,39,49,28,54,21,30,120
11285267,40,48,29,53,22,30,122
11290219,39,47,28,53,21,30,136
11295170,39,46,28,52,22,30,136
11300074,39,45,29,53,21,30,149
11305017,39,44,28,54,22,30,144
11309960,39,45,28,61,21,30,158
11314903,39,46,29,62,21,30,154
11319846,39,47,28,63,21,30,150
11324789,39,49,28,62,21,30,148
11329732,39,50,28,63,21,30,142
11334676,38,57,28,61,21,30,137
11339618,40,55,29,60,21,30,132
11344561,40,53,29,59,21,30,127
11349504,39,53,28,57,21,30,122
11354447,40,51,28,59,24,30,121
11359390,40,50,28,60,25,30,118
11364333,39,49,28,64,25,30,117
11369276,39,47,28,64,25,30,116
11374218,39,46,28,63,25,30,111
11379016,39,45,28,62,24,30,107
11383876,39,44,28,60,24,30,104
11388744,39,43,29,60,23,29,101
11393631,39,51,28,60,23,30,99
11398491,39,51,28,60,23,30,96
11403351,40,55,28,62,23,31,94
11408243,40,56,28,62,27,36,92
11413123,40,54,28,61,37,42,90
11417983,40,53,28,60,42,46,89
11422857,39,51,28,61,49,45,87
11427748,42,49,28,64,51,50,85
11432608,42,49,28,64,51,58,84
11437472,41,48,29,68,65,62,82
11442339,41,48,28,69,84,63,80
11447211,41,47,28,70,83,62,78
11452075,42,66,29,68,78,59,78
11456979,48,87,28,68,75,56,77
11461922,55,105,28,67,76,53,76
11466933,56,102,29,65,74,54,75
11471856,58,96,28,63,105,58,74
11476792,61,91,28,63,105,57,74
11481772,76,93,29,66,138,55,73
11486691,88,97,28,68,149,56,75
11491611,86,91,28,70,166,58,78
11496531,82,89,29,68,169,60,83
11501451,78,93,29,69,203,60,112
11506384,74,89,29,69,206,60,125
11511305,73,84,29,67,209,58,122
11516225,81,81,28,65,197,55,118
11521145,90,89,28,67,191,53,118
11526078,92,93,28,69,186,51,126
11531017,87,89,28,76,194,49,155
11535919,82,84,28,77,188,46,165
11540940,78,78,28,74,174,45,167
11545946,76,79,29,73,190,44,170
11550949,72,75,28,73,193,44,192
11555951,73,89,28,72,185,44,189
11560991,95,125,28,71,180,42,186
11565997,110,186,28,72,172,42,180
11571001,109,287,28,72,171,41,173
11576004,145,332,28,78,177,40,169
11581009,190,373,29,89,177,40,162
11586015,203,347,28,91,171,38,154
11591018,197,325,28,89,158,38,148
11596023,182,309,28,90,154,37,142
11601028,168,291,28,86,146,37,137
11606034,154,270,28,85,151,36,132
11611038,144,246,28,80,157,36,127
11616066,135,226,28,79,151,35,122
11621094,129,209,28,84,164,37,118
11626122,119,196,28,92,191,43,114
11631151,113,209,29,100,224,46,111
11636179,136,245,28,97,236,52,107
11641207,147,237,28,111,221,53,104
11646235,138,232,28,113,215,52,101
11651264,153,308,28,113,199,50,98
11656292,152,343,28,136,189,50,95
11661320,152,394,28,171,228,48,92
11666349,161,422,28,177,230,52,93
11671377,187,408,28,180,244,51,93
11676405,215,448,29,171,237,52,92
11681434,271,441,29,164,226,50,95
11686372,261,424,28,156,232,55,92
11691402,248,428,28,166,224,57,91
11696431,230,414,29,205,233,61,118
11701459,212,387,28,197,215,59,126
11706487,194,358,28,182,208,56,127
11711515,182,332,29,170,221,54,123
11716543,174,304,28,158,218,53,119
11721571,164,319,28,147,202,52,115
11726599,152,315,28,137,200,50,112
11731627,140,297,28,127,195,49,108
11736655,138,301,28,118,184,51,105
11741683,136,281,28,111,174,49,102
11746711,127,261,28,104,168,49,98
11751741,117,238,28,97,165,49,96
11756728,109,216,28,92,152,48,94
11761740,101,197,28,90,137,46,94
11766752,94,180,28,89,125,44,105
11771764,89,165,28,94,115,43,110
11776776,83,152,28,89,107,41,108
11781787,78,139,28,85,99,40,107
11786799,74,129,28,81,98,40,104
11791811,70,119,28,77,101,39,101
11796823,67,110,28,78,102,38,99
11801835,64,103,28,79,102,37,96
11806862,61,97,28,83,95,36,101
11811873,58,91,29,88,87,36,99
11816885,56,87,28,88,85,35,97
11821897,54,83,28,93,106,37,94
11826908,53,80,28,90,108,40,94
11831920,51,77,28,94,112,41,97
11836826,50,75,28,94,106,40,94
11841838,48,72,28,98,102,39,92
11846850,47,70,28,106,94,38,90
11851863,46,67,28,105,89,38,88
11856875,46,68,28,99,84,37,87
11861886,45,66,28,94,80,36,90
11866899,44,65,28,94,75,36,95
11871912,43,62,29,97,71,35,94
11876924,43,60,27,91,66,34,101
11881936,42,58,29,87,62,34,111
11886950,42,56,28,85,58,35,141
11897638,41,54,28,80,57,37,173
11902559,40,53,28,84,54,36,175
11907505,40,51,27,86,51,36,177
11912451,40,50,28,93,52,36,180
11917398,40,48,28,97,61,36,182
11922259,40,47,28,96,57,35,184
11927198,40,46,28,98,59,34,187
11932137,39,45,28,106,69,35,184
11937104,39,44,28,102,69,34,180
11942092,39,44,28,101,68,35,184
11947079,39,44,28,104,65,34,202
11952067,39,43,28,114,61,34,219
11957054,39,42,28,117,57,33,235
11962042,38,43,28,116,58,33,254
11967029,39,41,28,140,93,33,273
11972016,38,41,28,185,129,36,291
11977004,38,40,28,186,139,39,296
11981992,38,40,28,174,136,40,322
11986980,38,40,28,175,129,41,324
11991968,38,40,28,259,123,40,361
11996855,38,41,28,294,113,39,384
12001760,38,40,28,307,109,38,411
12006664,38,40,28,341,100,37,433
12011568,38,41,28,352,92,37,455
12016472,38,39,28,332,86,36,475
12021389,38,39,28,333,80,35,496
12026298,38,39,28,322,76,34,519
12031241,38,38,28,313,72,35,540
12036154,38,38,28,322,68,33,557
12041075,38,38,28,401,66,33,574
12046005,38,38,28,403,64,33,593
12050909,39,38,28,407,67,33,620
12055814,38,39,28,422,66,33,650
12060719,38,38,28,474,62,33,679
12065625,38,38,28,486,62,32,709
12070530,38,37,28,469,65,33,740
12075528,38,37,28,450,61,32,771
12080514,38,37,29,422,60,32,802
12085499,38,37,29,402,56,31,832
12090485,38,37,29,372,52,31,860
12095471,38,37,28,338,49,31,885
12100455,38,37,29,307,46,30,906
12105440,38,37,29,295,43,30,917
12110427,38,37,29,293,41,30,926
12115412,38,37,29,298,39,30,938
12120397,38,37,29,286,37,30,948
12125382,38,37,29,278,36,30,951
12130369,38,37,29,264,34,30,951
12135355,38,36,29,256,34,30,949
12140339,38,36,29,236,33,33,942
12145326,38,37,29,222,32,33,931
12150276,39,36,29,208,31,35,906
12155343,38,36,30,203,30,36,879
12160410,38,37,29,188,29,37,854
12165479,38,37,29,172,29,40,827
12170547,38,37,29,159,28,39,795
12175615,38,37,29,146,27,39,756
12180683,40,39,29,136,26,41,707
12185752,41,40,29,126,26,39,707
12190820,41,41,29,117,25,38,699
12195889,40,41,28,110,25,38,677
12200958,40,41,29,103,24,37,642
12206026,40,40,29,97,24,37,624
12211094,40,40,28,93,23,36,613
12216163,40,39,29,87,23,35,586
12221232,40,39,28,84,24,36,549
12226302,39,39,29,81,23,38,511
12231325,39,39,29,81,23,38,488
12236394,40,39,29,79,22,39,476
12241463,41,40,29,80,22,39,481
12246541,41,42,29,77,22,40,498
12251624,44,43,29,77,22,39,507
12256693,43,42,29,82,22,40,493
12261763,43,42,29,83,22,41,471
12266832,42,41,29,80,22,41,442
12271902,42,41,29,76,24,40,414
12276983,41,40,28,73,26,38,389
12282065,41,40,29,70,25,38,369
12287135,41,39,29,68,25,37,362
12292204,41,39,28,66,24,37,361
12297273,40,39,29,64,24,35,354
12302359,40,40,28,64,24,36,336
12307428,40,39,29,63,23,36,316
12312443,40,39,29,62,23,36,301
12317521,40,38,29,61,23,36,288
12322614,40,38,29,60,23,36,278
12327705,39,38,29,59,23,35,270
12332773,39,38,28,58,23,34,263
12337842,40,38,29,57,23,34,258
12342911,39,37,28,57,23,34,254
12347979,39,37,28,56,23,33,249
12353048,39,37,29,55,22,33,247
12358117,39,37,28,54,22,33,248
12363186,39,37,29,53,22,32,249
12368255,38,37,28,52,22,32,243
12373324,38,37,28,53,22,32,234
12378393,38,37,28,52,22,32,227
12383461,38,38,28,52,21,32,219
12388531,38,38,28,51,21,31,217
12393554,38,38,28,53,21,32,214
12398623,38,38,28,54,21,31,212
12403692,38,38,28,53,21,31,209
12408761,38,38,28,57,21,31,207
12413830,38,38,29,58,21,30,210
12418901,38,38,28,57,21,30,209
12423970,38,38,28,56,21,30,203
12429039,38,38,28,60,21,30,200
12434110,38,38,29,60,21,29,197
12439180,38,38,28,58,22,30,197
12444249,38,38,28,65,22,30,198
12449319,38,37,28,66,22,30,199
12454391,38,37,29,65,22,30,201
12459461,38,37,28,63,22,30,203
12464530,38,37,29,64,22,30,206
12469601,38,37,27,63,22,30,210
12474608,38,37,28,63,21,31,213
12479678,38,37,28,61,22,31,217
12484746,38,37,28,60,22,30,220
12489818,37,37,28,61,22,30,223
12494889,38,37,28,61,22,31,228
12499959,38,37,28,61,22,31,233
12505029,38,36,28,60,22,30,238
12510100,38,36,28,61,21,30,243
12515172,38,36,28,63,22,30,247
12520241,38,37,29,61,21,30,251
12525313,38,37,28,65,21,30,254
12530384,38,36,28,79,21,29,256
12535455,39,36,28,103,21,30,259
12540527,38,35,28,98,21,30,262
12545601,38,36,28,96,21,30,264
12550676,38,36,27,92,21,30,265
12555666,38,36,28,89,21,30,267
12560741,38,36,28,84,21,30,268
12565817,38,36,28,80,21,30,269
12570892,38,36,29,76,21,30,269
12575968,38,36,28,73,21,30,269
12581043,38,36,28,70,21,30,269
12586118,38,36,28,67,21,30,268
12591194,38,36,29,65,21,30,268
12596269,38,36,28,63,22,29,269
12601345,38,36,28,61,21,30,268
12606420,38,36,28,60,21,30,268
12611496,38,37,28,59,21,30,268
12616572,38,36,29,57,21,30,269
12621647,38,36,28,56,21,30,271
12626723,38,36,28,55,21,30,277
12631798,38,36,29,54,22,30,275
12636686,39,38,28,53,21,30,281
12641678,38,38,28,52,21,29,301
12646670,38,44,28,51,21,29,304
12651662,38,44,28,51,21,29,307
12656653,38,44,28,50,23,29,304
12661644,39,43,28,50,23,29,323
12666636,39,43,28,50,23,30,314
12671645,40,44,28,50,23,30,330
12676636,41,44,28,50,22,29,362
12681628,41,46,28,52,22,30,355
12686621,40,59,28,51,22,30,337
12691627,40,67,28,51,22,30,329
12696659,40,68,28,51,22,30,321
12701675,40,66,28,51,23,30,314
12706691,39,64,28,49,23,30,319
12711692,40,66,29,50,22,30,341
12719118,45,62,28,50,24,31,333
12723980,45,59,28,50,40,33,321
12728864,44,66,28,50,45,32,309
12733714,44,79,28,53,62,32,301
12738558,44,100,29,54,70,33,293
12743417,46,102,28,55,69,34,283
12748281,48,97,29,58,85,34,273
12753156,49,92,29,64,115,35,262
12758005,55,94,29,62,121,42,252
12762853,54,90,28,61,149,48,241
12767709,64,88,28,60,149,45,232
12772554,62,89,28,60,148,44,223
12777398,60,88,29,58,173,44,214
12782243,58,93,29,60,171,47,207
12787087,62,108,28,60,177,47,200
12791932,62,132,29,59,166,46,198
12796623,60,131,29,61,161,45,199
12801548,59,127,28,64,163,43,196
12806474,58,118,28,62,155,43,194
12811399,56,111,28,63,200,45,192
12816327,54,103,28,66,227,49,190
12821253,53,96,29,80,297,59,186
12826178,51,91,29,87,301,69,181
12831110,50,90,28,94,277,66,175
12836038,54,92,28,109,252,62,171
12840963,57,90,28,129,231,59,165
12845920,56,94,29,166,215,56,160
12850849,55,89,29,188,199,54,164
12855777,53,83,28,214,182,52,165
12860702,52,79,28,245,166,50,162
12865628,51,76,29,253,151,48,167
12870421,49,74,28,253,143,47,168
12875342,47,72,28,249,141,46,162
12880260,47,70,28,245,136,44,173
12885189,49,67,28,276,131,42,178
12890110,49,64,28,256,136,41,171
12895030,49,62,28,234,128,40,164
12899949,51,63,29,253,131,39,157
12904870,50,62,28,264,129,38,150
12909791,48,60,28,269,118,37,146
12914712,50,57,28,274,113,36,143
12919632,50,56,28,257,108,36,141
12924553,53,71,28,271,100,37,146
12929477,88,79,29,293,99,37,150
12934397,114,129,28,339,97,37,154
12939325,120,192,28,338,89,37,155
12944125,142,191,28,313,84,37,153
12949045,137,178,28,286,85,37,149
12953966,127,165,28,261,83,36,146
12958886,118,153,28,248,77,35,143
12963806,109,142,28,236,75,35,142
12968727,102,132,28,237,88,36,155
12973648,95,130,28,260,88,40,159
12978568,90,124,28,280,102,40,195
12983529,95,136,28,284,111,42,193
12988450,126,152,28,273,120,42,184
12993370,198,346,28,264,143,40,175
12998291,194,535,28,242,140,39,172
13003212,271,613,28,229,136,39,173
13008132,281,565,29,220,140,41,170
13013044,262,509,28,216,184,48,162
13017961,239,466,28,204,188,50,158
13022877,218,427,28,217,172,48,153
13027794,201,393,28,223,160,47,149
13032711,184,360,28,215,154,45,145
13037628,169,329,29,208,152,45,144
13042544,156,299,28,193,143,47,146
13047461,146,303,28,178,134,45,145
13052387,162,315,28,164,146,45,147
13057303,165,322,28,152,137,44,154
13062220,155,322,29,141,160,43,152
13067137,145,337,28,131,157,46,146
13072054,145,344,28,132,164,46,141
13076970,140,321,28,131,179,44,134
13081887,139,357,28,126,186,48,130
13086665,135,368,28,124,172,46,125
13091582,139,419,28,155,174,45,121
13096499,141,469,29,200,173,47,117
13101415,153,520,28,205,169,46,127
13106332,162,498,29,208,154,45,135
13111249,171,578,28,210,142,44,137
13116166,182,540,28,209,146,44,134
13121082,176,488,28,203,203,45,128
13125999,166,457,28,187,205,54,124
13130917,158,432,28,179,245,56,142
13135833,146,447,28,171,270,58,142
13140750,153,413,29,159,259,60,136
13145674,160,413,28,147,236,58,131
13150593,179,653,29,153,216,56,126
13155428,213,803,28,158,201,53,122
13160374,260,832,28,169,183,50,122
13165323,263,767,28,166,168,48,117
13175994,275,730,28,150,162,45,110
13180827,251,677,28,140,170,47,107
13185708,239,663,28,136,183,45,105
13190590,224,657,28,133,175,45,105
13195472,215,642,28,138,165,44,107
13200356,199,605,28,152,155,41,105
13205239,185,577,27,181,153,44,102
13210122,184,543,28,176,154,44,100
13215011,177,521,28,169,147,42,100
13219943,163,501,28,187,143,41,97
13224874,160,507,28,203,152,42,94
13229607,153,467,28,208,145,41,92
13234457,157,451,28,193,159,43,90
13239307,155,475,28,191,148,44,88
13244157,154,492,28,184,144,46,87
13249007,176,479,28,174,144,46,90
13253856,173,451,28,161,134,43,92
13258706,160,415,28,149,122,42,92
13263557,148,396,28,139,112,41,90
13268407,138,378,28,130,105,40,88
13273258,135,346,29,129,109,39,86
13278108,132,321,28,126,104,38,85
13282958,127,318,28,129,97,38,83
13287808,121,326,28,127,90,36,83
13292659,117,322,28,129,85,36,81
13297510,114,326,28,122,81,37,79
13302421,110,312,28,122,82,37,76
13307339,102,317,28,126,78,36,75
13312256,101,349,28,130,74,36,75
13317170,115,391,28,121,71,35,76
13322078,112,368,28,114,66,34,76
13326987,104,334,29,107,61,34,75
13331896,98,306,27,105,57,34,74
13336805,91,278,28,101,54,33,72
13341714,86,253,28,96,51,33,70
13346624,81,230,28,90,48,33,68
13351535,76,210,28,90,45,33,68
13356444,72,192,28,93,42,34,68
13361353,69,176,28,99,41,34,67
13366262,66,162,28,96,38,33,67
13371174,62,149,28,91,37,33,68
13376027,60,138,28,87,35,33,68
13381018,58,127,28,83,34,33,68
13386011,56,118,28,79,32,32,67
13391005,54,109,28,75,31,33,67
13395996,52,102,28,73,30,33,67
13400987,51,97,28,71,29,35,67
13405981,49,93,28,69,29,35,67
13410975,48,88,28,68,33,36,67
13415966,47,82,28,67,33,36,67
13420958,46,78,28,66,32,37,66
13425952,44,74,28,64,30,37,66
13430946,44,70,28,64,30,37,66
13435938,44,67,28,67,29,39,70
13440932,43,66,28,65,28,39,88
13445926,42,63,28,63,29,40,97
13450919,42,60,28,61,30,39,95
13455912,41,58,28,60,32,38,116
13460769,41,56,29,58,31,37,125
13465755,41,54,28,57,30,37,126
13470740,41,54,29,56,30,38,132
13475726,40,53,28,55,42,38,129
13480712,40,53,28,57,49,37,125
13485710,40,51,29,60,51,36,122
13490696,40,49,29,60,48,37,133
13495683,40,49,28,62,46,37,133
13500669,39,48,29,60,45,37,139
13505656,39,47,29,64,43,36,137
13510643,39,47,28,64,42,36,139
13515646,39,45,29,66,40,36,140
13520633,39,44,28,67,38,36,134
13525620,39,44,29,67,39,35,128
13530607,38,43,28,66,37,35,122
13535594,38,42,29,64,36,34,118
13540433,38,42,28,63,35,33,135
13545419,38,41,28,62,35,33,136
13550417,38,41,28,60,34,33,136
13555403,38,40,29,58,34,32,136
13560393,38,40,28,58,34,32,132
13565379,38,39,29,58,34,32,127
13570365,38,39,28,57,33,33,122
13575351,38,39,29,56,34,35,118
13580343,38,38,29,56,37,37,114
13585341,38,38,29,55,35,36,110
13590327,38,38,29,54,33,37,107
13595312,38,38,29,54,34,36,104
13600298,38,39,28,53,33,35,101
13605284,38,37,29,55,32,35,99
13610270,38,38,28,57,31,35,96
13615257,39,37,29,68,30,34,94
13620114,38,37,28,78,29,34,92
13625099,38,37,29,84,27,33,90
13630083,38,37,28,92,28,33,88
13635068,38,37,28,98,27,32,87
13640052,39,37,28,94,26,32,85
13645036,38,37,28,90,26,32,83
13650020,38,37,29,85,26,32,82
13655004,38,37,28,81,26,32,81
13659988,38,37,28,77,25,31,80
13664972,38,37,29,75,25,31,79
13669957,38,37,28,71,25,31,78
13674954,38,37,29,70,25,31,77
13679939,38,36,28,68,24,31,76
13684923,39,36,28,65,24,31,76
13689909,38,37,28,66,24,31,75
13694893,38,37,28,66,23,32,74
13699836,38,37,28,66,23,31,74
13704821,38,42,28,64,26,31,73
13709808,37,42,28,65,28,31,73
13714793,39,41,28,62,29,31,72
13719778,38,41,28,61,28,30,72
13724764,38,40,28,60,28,30,72
13729751,38,40,28,58,27,30,71
13734736,38,39,29,57,26,31,70
13739721,38,39,28,56,25,30,71
13744709,38,38,29,54,25,30,70
13749697,38,39,29,54,25,31,69
13754681,38,39,28,53,24,30,69
13759667,38,38,28,52,24,30,70
13764655,38,41,29,53,24,30,69
13769643,38,41,28,53,24,32,68
13774627,38,40,28,52,24,32,69
13779615,37,40,29,51,24,31,68
13784481,38,40,29,51,24,31,68
13789497,38,39,28,51,25,31,68
13794513,38,39,28,50,25,31,68
13799529,38,39,28,50,25,31,68
13804546,38,38,28,52,24,31,68
13809563,38,38,28,57,24,32,67
13814580,38,39,28,60,24,31,67
13819601,38,42,28,60,24,31,67
13824622,38,41,29,62,23,30,67
13829642,38,41,28,64,23,31,67
13834661,38,40,28,63,23,30,67
13839682,38,40,28,61,22,31,67
13844703,38,40,28,60,23,31,67
13849724,38,40,28,59,23,31,66
13854744,38,40,28,62,22,30,67
13859765,38,39,28,62,23,30,66
13864625,38,39,29,65,22,30,66
13869561,38,40,28,70,23,30,66
13874497,38,39,29,69,22,30,66
13879433,38,39,29,73,23,30,66
13884369,38,39,28,72,23,30,66
13889305,38,38,28,69,23,30,66
13894241,39,38,28,67,24,31,66
13899177,38,38,28,65,23,32,66
13904113,38,38,28,65,23,34,66
13909049,38,37,28,64,23,34,66
13913985,38,38,28,63,23,34,66
13918921,38,39,29,62,23,34,66
13923856,38,39,27,64,23,35,66
13928793,38,39,28,65,24,34,66
13933728,38,44,28,64,29,34,66
13938664,38,45,28,65,30,33,66
13943618,38,44,29,67,31,33,66
13948634,38,43,28,69,30,33,65
13953648,38,42,29,72,29,32,63
13958649,38,42,29,73,29,32,62
13963657,38,41,28,70,28,33,61
13968727,41,41,28,68,28,32,59
13973792,41,40,28,66,27,31,58
13978860,40,40,28,63,26,32,57
13983878,40,39,28,63,25,31,57
13988883,40,39,28,63,25,31,57
13993900,40,38,28,62,25,31,58
13998911,39,38,28,62,24,31,58
14003912,39,38,30,62,24,31,59
14008914,39,38,29,62,24,30,60
14013947,39,38,29,60,24,31,60
14018954,40,38,28,59,23,32,60
14023956,39,37,28,57,23,32,60
14028902,38,37,29,56,23,31,61
14033986,38,37,28,55,23,31,62
14039085,38,38,28,55,22,31,63
14044234,38,37,28,55,23,31,64
14049325,38,37,28,54,22,31,65
14054409,39,38,28,54,22,31,67
14059505,39,37,28,56,22,30,68
14064603,41,37,28,56,22,29,69
14069701,41,37,28,55,22,32,71
14074796,41,37,28,54,22,32,71
14079880,42,38,28,53,22,31,72
14084976,41,39,28,53,22,31,73
14090063,41,39,28,52,22,32,73
14095147,40,38,28,51,22,32,72
14100246,40,38,28,51,22,32,73
14105331,41,38,28,51,22,31,75
14110423,39,38,28,50,22,32,75
14115370,40,38,28,50,22,32,74
14120446,40,38,28,50,21,32,73
14125524,39,43,28,49,22,32,74
14130603,39,48,28,49,22,32,73
14135678,41,59,28,49,23,32,73
14140755,44,57,28,49,21,32,73
14145834,44,55,28,51,23,33,75
14150912,43,57,28,50,26,34,97
14155988,44,68,28,50,46,34,106
14161067,46,78,28,50,44,34,103
14166146,46,79,28,49,46,33,101
14171242,45,76,28,49,54,33,101
14176319,44,89,29,49,66,33,99
14181398,46,95,28,49,67,33,96
14186477,48,118,29,48,78,33,94
14191555,56,158,28,48,91,35,91
14196560,71,192,28,48,109,38,89
14201638,94,203,28,49,157,38,91
14206717,91,199,28,50,209,39,89
14211796,89,211,28,49,244,39,88
14216874,94,225,28,49,244,38,88
14221970,93,245,28,49,252,37,87
14227049,101,252,28,49,242,37,85
14232128,126,241,28,49,262,36,85
14237207,130,229,28,54,317,38,86
14242285,129,240,28,60,325,42,85
14247364,132,264,29,64,336,45,83
14252457,133,288,28,66,323,45,81
14257536,149,293,29,66,304,45,83
14262615,168,300,28,64,295,43,86
14267693,159,273,28,62,269,43,88
14272763,149,254,28,61,245,44,88
14277838,138,242,28,60,230,42,88
14282914,129,225,28,65,216,42,86
14287989,138,222,28,72,244,40,85
14293065,134,246,28,74,248,40,88
14298140,129,232,28,74,228,38,89
14303215,129,251,28,72,215,39,91
14308291,124,249,28,69,199,41,91
14313366,127,264,28,68,191,39,89
14318441,125,248,28,65,186,38,86
14323516,119,231,28,64,194,42,85
14328591,110,213,28,61,200,48,83
14333667,103,197,28,60,214,47,82
14338742,96,179,28,58,227,54,80
14343817,90,164,28,57,243,58,79
14348875,84,150,28,58,240,67,78
14353952,78,138,28,65,217,63,77
14359028,75,127,28,64,204,60,76
14364104,71,117,28,64,197,59,76
14369181,67,109,28,65,182,56,74
14374258,64,101,28,63,165,54,74
14379334,61,94,28,61,150,51,75
14384411,59,88,28,60,138,49,75
14389488,57,83,28,60,126,47,77
14394565,55,78,28,60,118,45,76
14399642,53,73,29,61,107,44,76
14404719,51,70,28,60,99,42,75
14409796,50,66,28,59,91,41,75
14414874,49,63,28,62,84,40,74
14419951,47,61,29,92,76,38,73
14425028,46,61,28,134,71,37,72
14430104,45,61,28,187,66,36,71
14435213,44,59,28,190,61,35,70
14440319,44,56,28,181,57,36,69
14445425,43,54,28,169,54,34,69
14450533,42,52,28,156,63,34,69
14461372,42,49,28,132,117,35,68
14466368,41,48,28,125,107,34,69
14471407,41,46,28,118,98,34,68
14476448,41,45,28,118,90,33,68
14481488,40,44,28,114,86,33,69
14486530,40,43,28,114,97,33,68
14491571,40,42,28,123,93,33,68
14496613,40,42,28,130,89,32,68
14501661,39,41,28,130,145,43,68
14506751,39,41,28,125,191,48,67
14511842,39,40,28,117,195,53,67
14516772,39,41,29,112,200,55,67
14521778,39,40,28,118,188,55,67
14526785,39,40,29,115,174,52,67
14531791,39,40,29,108,190,52,68
14536798,39,40,29,101,197,55,67
14541805,39,40,29,95,216,60,67
14546812,41,41,29,92,251,60,67
14551819,53,46,28,101,268,69,67
14556826,57,48,28,108,248,65,66
14561834,61,67,29,107,233,61,66
14566841,85,85,28,105,216,58,66
14571848,88,128,29,100,197,56,66
14576855,131,141,29,98,182,53,67
14581863,127,138,29,100,190,54,68
14586870,118,129,29,97,229,63,67
14591877,110,121,29,103,287,66,66
14596419,104,113,29,100,292,74,65
14600996,98,107,28,100,276,71,64
14605597,92,100,28,101,251,67,63
14610199,86,95,29,113,240,64,61
14614801,82,90,29,138,234,62,62
14619403,87,97,29,141,219,59,62
14624005,112,107,29,160,206,56,62
14628608,136,132,28,154,208,59,63
14633211,142,176,29,145,200,62,64
14637814,154,204,29,136,225,65,67
14642417,153,232,29,127,259,69,71
14647020,181,229,28,119,245,72,73
14651622,225,215,28,112,254,72,74
14656227,233,198,28,108,241,75,75
14660830,223,182,28,107,223,71,74
14665277,236,169,29,107,229,68,72
14669959,264,156,29,127,224,65,71
14674643,258,147,28,151,208,62,71
14679326,241,138,28,145,196,59,70
14684008,281,139,28,136,199,58,70
14688691,296,242,29,128,217,62,69
14693376,325,297,28,122,215,64,71
14698060,366,340,28,117,218,66,76
14702742,380,382,29,111,210,66,77
14707426,377,395,29,108,202,64,78
14712111,352,365,29,146,185,61,79
14716794,343,348,28,189,175,61,79
14721478,338,325,29,197,209,74,78
14726162,325,309,29,216,210,80,78
14730787,327,303,28,214,257,96,77
14735463,337,345,29,231,249,100,78
14740140,395,380,28,222,230,97,80
14744817,386,377,28,205,211,91,79
14749494,363,585,28,194,205,89,83
14754171,340,702,28,181,187,83,82
14758855,359,852,28,171,172,78,80
14763532,356,820,28,161,159,74,80
14768209,368,861,28,152,146,72,82
14772886,388,803,28,144,143,68,87
14777564,372,733,28,136,145,67,89
14782242,368,682,28,129,173,72,89
14786920,344,642,28,121,187,72,89
14791598,319,598,29,118,203,72,88
14796275,295,554,28,117,193,69,85
14800827,270,507,29,131,198,68,84
14805504,247,476,28,127,195,72,81
14810181,239,444,28,127,191,69,80
14814859,245,428,28,165,188,73,79
14819536,264,404,29,199,185,74,79
14824213,276,380,28,213,222,73,78
14828890,273,376,28,205,271,77,77
14833568,271,381,28,197,274,73,76
14838245,280,414,28,198,258,70,77
14842922,293,402,28,189,236,67,80
14847610,273,385,28,186,222,66,81
14852288,257,361,28,172,204,66,80
14856965,242,341,29,162,189,62,78
14861643,225,342,29,150,180,60,77
14866319,206,332,28,145,176,58,76
14870992,212,328,28,140,169,58,76
14875712,208,314,28,141,170,55,75
14880386,213,309,28,156,177,54,75
14885059,226,291,28,186,174,53,79
14889733,209,267,28,181,161,50,78
14894406,192,244,28,181,158,48,78
14899079,177,223,28,177,160,47,78
14903753,164,205,28,166,156,46,77
14908426,156,188,29,158,154,47,76
14913099,145,173,29,155,184,58,75
14917772,134,164,28,154,202,63,74
14922445,128,167,29,151,252,76,72
14927119,132,167,28,150,257,81,71
14931803,129,242,29,141,245,77,70
14936390,183,304,28,134,225,73,70
14941063,196,348,28,125,207,70,72
14945737,213,329,28,118,197,69,73
14950441,210,302,29,143,185,67,75
14955116,193,281,28,181,184,66,74
14959790,178,261,28,171,176,62,73
14964483,164,239,28,158,169,59,73
14969157,155,229,28,148,154,56,71
14973831,145,217,29,141,144,54,70
14978506,134,216,29,136,142,53,70
14983180,125,198,28,134,138,50,69
14987854,116,183,28,134,141,49,70
14992530,108,169,29,129,139,47,69
14997205,101,158,28,123,132,46,69
15001878,95,146,28,119,127,45,69
15006432,90,136,28,117,120,46,69
15011138,85,126,28,120,125,46,68
15015843,80,117,28,133,119,49,69
15020546,76,110,28,140,116,47,68
15025252,71,103,28,133,108,46,68
15029959,74,120,28,125,109,46,68
15034664,93,147,29,124,101,44,68
15039369,110,147,28,121,94,43,68
15044075,103,136,28,120,93,42,68
15048782,97,126,28,116,91,43,67
15053487,92,117,28,109,84,42,67
15058193,102,109,28,103,102,41,67
15062900,103,138,28,122,105,40,67
15067606,109,163,28,150,123,39,67
15072313,111,159,29,166,132,39,67
15076802,108,149,28,189,133,39,67
15081429,106,161,28,177,131,39,67
15086056,125,168,28,170,133,38,66
15090682,141,196,28,179,133,37,67
15095309,141,185,28,181,128,37,66
15099936,132,175,28,176,120,37,66
15104563,122,162,28,166,140,38,67
15109191,114,149,29,159,151,40,66
15113828,107,139,28,149,150,40,66
15118455,100,129,28,144,141,44,66
15123082,95,122,28,165,134,43,66
15127709,89,120,28,186,139,45,66
15132335,89,121,28,177,138,46,65
15136963,88,119,28,165,128,44,66
15141768,86,135,28,153,117,43,66
15146472,82,131,29,144,108,42,66
15151185,77,125,29,136,103,41,66
15155899,73,120,28,129,98,42,66
15160612,82,136,28,124,97,41,65
15165326,91,155,28,119,93,40,65
15170040,103,160,28,122,86,39,65
15174753,99,154,28,118,80,38,65
15179467,100,154,28,120,151,47,66
15184181,94,147,29,130,200,52,66
15188895,90,137,29,123,231,62,65
15193609,84,128,29,114,220,62,65
15198328,79,118,28,108,202,58,66
15203041,75,110,29,104,193,56,65
15207755,72,103,28,104,176,53,65
15212471,69,96,28,101,164,52,66
15217049,65,90,28,97,150,50,65
15221843,62,85,28,93,138,48,65
15226682,65,81,28,89,129,46,65
15231499,62,82,28,86,130,47,65
15236306,61,83,28,82,127,45,65
15241126,58,92,29,79,126,44,66
15245921,56,89,29,77,127,44,65
15250715,54,84,28,73,120,43,66
15255534,53,81,28,80,110,42,66
15260329,51,78,28,91,102,41,65
15265136,50,74,29,96,98,40,66
15269937,49,70,28,91,94,39,66
15274798,48,66,29,88,87,38,66
15279593,46,66,28,93,80,37,66
15284402,48,68,28,91,75,37,66
15289196,56,72,29,101,71,36,66
15293854,54,69,29,101,70,36,66
15298650,52,66,29,96,80,38,67
15303435,51,63,28,92,92,38,68
15308221,49,62,28,88,100,41,77
15313023,48,60,29,84,97,40,80
15317810,47,57,28,80,92,39,79
15322596,46,55,28,77,86,37,77
15327382,45,53,28,75,84,37,77
15332178,45,52,28,72,78,36,76
15336965,44,50,28,72,73,36,76
15341768,43,48,28,76,68,35,75
15346554,43,47,28,84,63,34,74
15351343,42,46,28,87,59,34,87
15356130,42,45,29,83,57,34,90
15360916,41,44,29,82,58,34,94
15365703,41,44,29,97,58,33,95
15370418,41,43,29,134,55,33,105
15375205,40,42,28,148,51,32,109
15379991,40,42,29,189,49,31,107
15384779,40,41,28,246,46,32,109
15389568,40,41,29,252,44,32,105
15394355,39,40,28,256,42,31,103
15399142,39,41,29,266,40,31,101
15403930,39,39,28,265,42,32,98
15408718,39,39,28,251,40,32,99
15413505,39,39,29,231,39,32,104
15418294,39,38,29,212,37,33,103
15423082,39,38,28,201,36,33,100
15427870,39,38,29,193,34,33,125
15432659,39,38,28,192,34,33,128
15437447,38,38,29,186,36,32,134
15442236,39,38,28,175,37,32,131
15446897,38,38,29,170,42,32,128
15451683,38,38,28,162,50,32,124
15456488,38,38,28,160,55,31,119
15461274,38,37,29,149,60,33,115
15466061,39,38,29,138,61,33,111
15470847,38,37,29,129,57,35,106
15475634,38,37,29,120,54,36,102
15480420,38,37,29,113,54,35,99
15485207,38,37,28,106,56,35,102
15489994,38,37,29,100,53,35,100
15494781,38,37,29,94,52,34,96
15499568,38,37,29,89,49,33,93
15504355,38,37,29,85,47,33,90
15509141,38,37,29,81,54,33,89
15513928,38,37,28,78,57,33,87
15518715,38,36,28,74,61,33,85
15523361,37,36,29,71,60,34,85
15528148,38,37,28,69,60,33,83
15532935,38,37,29,68,71,33,82
15537722,38,37,28,69,78,34,81
15542508,38,37,29,71,78,35,80
15547295,38,37,29,71,75,34,78
15552082,38,37,29,71,70,34,77
15556868,38,37,29,69,65,34,77
15561655,38,37,29,66,64,32,76
15566442,38,36,29,65,63,34,75
15571229,38,37,28,63,59,34,74
15576015,38,36,29,61,55,33,74
15580802,39,37,29,59,53,33,73
15585589,38,36,29,59,56,33,73
15590376,38,36,29,57,53,32,72
15595162,38,37,28,56,67,32,72
15599928,38,36,28,54,82,32,71
15604758,38,37,28,54,78,32,71
15609587,38,36,29,54,72,31,70
15614416,38,36,29,54,69,32,70
15619245,38,36,28,53,64,31,69
15624075,38,37,28,52,60,31,69
15628904,38,36,29,51,57,31,68
15633733,38,36,28,51,53,31,67
15638562,38,36,28,51,52,31,66
15643392,38,36,29,50,71,32,65
15648222,38,37,28,50,71,32,65
15653051,38,36,28,49,75,32,65
15657881,38,36,28,49,71,33,64
15662710,38,36,29,49,66,32,63
15667540,38,37,28,48,64,32,62
15672369,38,36,28,48,62,31,61
15677200,38,37,29,49,58,32,60
15687479,39,36,28,48,51,31,58
15692150,38,36,28,48,48,31,57
15696838,38,36,28,47,46,31,56
15701526,38,36,28,47,43,30,54
15706215,38,36,29,47,41,31,54
15710905,38,36,29,48,40,31,53
15715594,38,36,29,48,38,30,53
15720284,38,36,28,48,37,30,53
15725002,38,36,28,47,39,31,54
15729735,38,36,29,47,39,31,53
15734468,38,36,28,47,38,31,54
15739202,38,36,28,47,50,30,55
15743935,38,36,28,47,54,31,56
15748669,38,36,28,47,52,30,57
15753402,37,36,28,47,51,30,59
15758136,38,36,28,47,53,30,61
15762996,38,36,28,47,50,30,62
15767843,38,36,28,47,47,31,63
15772689,38,36,29,47,44,31,64
15777536,38,36,28,46,44,30,65
15782383,38,36,28,47,41,30,65
15787229,38,36,28,46,40,31,69
15792076,38,36,28,46,38,30,78
15796923,38,36,29,46,38,30,81
15801770,38,36,28,46,36,30,80
15806616,38,36,28,46,34,31,80
15811462,38,36,29,46,34,30,80
15816335,38,36,28,47,34,29,78
15821182,38,36,29,47,35,30,80
15826029,38,36,28,47,33,30,84
15830884,38,36,28,47,32,31,83
15835731,38,36,29,48,32,32,85
15840578,38,36,28,46,33,32,85
15845257,38,36,28,46,36,32,83
15850185,38,36,28,47,37,31,81
15855113,38,36,28,47,39,32,79
15860042,39,36,28,47,38,31,77
15864969,38,36,29,46,38,30,75
15869897,38,36,28,46,36,31,73
15874826,38,36,28,47,34,31,71
15879755,38,35,28,48,33,30,70
15884683,38,35,28,47,32,31,70
15889611,38,36,28,47,31,31,69
15894541,38,36,28,47,30,31,69
15899470,38,36,28,47,29,31,68
15904398,38,36,28,48,29,30,67
15909327,38,37,28,47,31,30,67
15914258,38,37,28,47,33,30,67
15919188,38,36,29,47,32,30,66
15924043,38,36,28,47,33,31,66
15928959,39,36,29,47,31,31,66
15933874,38,36,28,47,30,31,66
15938788,38,36,28,48,29,31,66
15943703,38,36,29,48,28,30,66
15948619,38,36,28,48,28,30,66
15953535,38,36,28,48,27,30,66
15958449,38,36,28,48,28,30,66
15963365,38,36,28,48,27,30,66
15968281,38,36,29,47,28,30,66
15973197,38,36,28,47,27,31,66
15978113,38,36,28,47,28,31,66
15983029,38,36,28,47,30,31,66
15987964,38,36,28,47,32,31,66
15992897,38,36,28,47,33,32,66
15997819,38,36,28,47,32,31,66
16002736,39,36,28,48,30,30,66
16007499,38,36,28,49,30,31,66
16012416,38,36,28,48,29,30,66
16017332,37,36,29,48,29,29,65
16022248,38,36,28,48,28,31,65
16027180,38,36,29,48,28,31,65
16032096,38,36,28,48,27,31,66
16037012,38,36,28,47,27,32,65
16041929,38,36,29,47,27,32,65
16046853,38,36,28,47,28,32,65
16051769,38,36,28,48,29,31,65
16056685,38,36,28,48,28,31,65
16061602,38,36,28,48,27,31,65
16066541,38,36,29,48,26,31,65
16071457,38,36,28,48,27,31,65
16076378,38,36,29,47,25,31,65
16081295,38,36,29,48,26,30,65
16086265,38,36,28,48,25,30,66
16091210,38,36,29,48,31,30,65
16096156,39,36,28,48,53,30,65
16101101,38,35,28,47,70,30,76
16106046,38,36,28,47,81,30,85
16110991,38,36,28,47,77,31,83
16115936,38,36,28,48,72,31,81
16120882,38,36,28,48,67,30,78
16125827,38,36,29,47,62,30,78
16130773,38,36,28,47,57,30,77
16135718,38,36,28,47,55,30,76
16140663,38,36,28,47,52,30,75
16145609,38,36,28,47,49,30,74
16150554,38,36,28,46,47,31,74
16155499,38,36,29,47,46,31,74
16160444,38,36,28,46,45,31,73
16165390,38,36,29,46,42,30,72
16170158,38,36,28,47,41,30,71
16175103,38,36,28,47,39,30,71
16180058,38,36,28,47,37,30,71
16185004,38,36,28,46,36,30,70
16189949,38,36,28,48,39,31,71
16194896,38,36,29,47,37,31,98
16199841,38,36,28,48,36,30,107
16204786,38,36,28,46,34,31,104
16209733,39,36,28,47,33,31,101
16214680,38,36,28,47,32,30,98
16219625,38,36,28,46,30,31,96
16224571,38,36,28,46,29,30,93
16229518,38,36,29,47,29,30,90
16234465,38,36,28,48,29,31,89
16239410,38,36,28,48,28,30,87
16244358,38,36,28,48,28,31,86
16249261,38,36,28,48,27,30,85
16254199,38,36,29,48,27,30,83
16259137,38,36,28,48,27,30,82
16264076,38,36,28,48,26,30,80
16269017,38,36,28,48,26,31,80
16273955,38,36,28,47,25,31,80
16278894,38,36,29,48,29,31,79
16283834,38,36,29,47,32,30,78
16288774,38,36,28,46,35,30,78
16293713,38,37,28,47,34,30,77
16298653,38,36,29,47,32,30,85
16303593,38,36,28,47,31,30,86
16308533,38,36,28,48,30,30,85
16313473,38,36,28,48,29,30,84
16318415,38,36,28,48,29,30,82
16323359,38,37,28,49,28,30,81
16328303,38,36,28,49,27,30,80
16333025,38,36,28,49,26,30,79
16337886,38,36,28,48,26,30,78
16342760,38,36,28,48,25,31,77
16347621,38,36,28,48,25,31,76
16352481,38,36,29,48,29,31,76
16357342,38,36,28,48,37,31,75
16362203,38,36,28,48,36,31,74
16367064,38,36,28,47,37,31,74
16371925,39,36,29,47,37,31,73
16376786,38,36,28,48,37,31,73
16381648,38,36,29,48,36,31,73
16386509,38,36,28,49,35,31,72
16391369,38,35,28,49,34,31,71
16396230,38,36,29,49,33,31,71
16401091,38,36,28,49,32,31,71
16405951,38,36,28,48,31,31,71
16410944,38,36,28,48,31,31,70
16415874,38,36,28,48,36,31,70
16420794,38,36,29,48,43,31,69
16425715,38,36,28,48,44,31,70
16430635,38,37,28,48,45,31,69
16435555,38,37,28,50,42,31,69
16440475,38,37,29,49,41,31,69
16445405,38,37,29,49,39,31,69
16450333,38,37,27,49,37,30,68
16455254,38,41,29,49,38,31,68
16460197,38,45,28,48,38,30,68
16465175,38,46,28,48,37,31,68
16470113,38,45,28,48,40,31,68
16475082,38,44,28,48,45,32,69
16480007,38,43,28,48,46,32,68
16484943,38,42,28,48,50,32,67
16489881,38,41,29,49,53,31,67
16494662,38,42,29,50,54,31,68
16499679,38,44,28,51,51,31,67
16504686,38,47,28,51,48,31,67
16509690,38,47,28,51,45,31,67
16514718,38,46,28,50,43,30,67
16519731,38,46,28,50,41,30,67
16524734,38,46,28,50,38,30,67
16529737,38,45,28,49,37,30,67
16534740,38,44,28,49,36,30,66
16539754,38,44,28,48,36,30,66
16544757,38,47,28,48,37,30,66
16549760,39,50,29,48,38,30,67
16554763,40,49,29,48,36,30,66
16559766,40,48,28,48,35,30,66
16564769,40,48,28,48,33,30,66
16569774,40,47,28,47,32,30,66
16574776,39,46,28,47,31,30,66
16579802,39,45,28,47,30,30,66
16584834,39,44,28,47,29,30,66
16589862,39,43,28,47,28,30,66
16594888,39,43,29,47,30,30,66
16599914,39,42,29,47,30,30,67
16604943,39,44,29,50,31,30,66
16609971,39,45,28,52,36,30,66
16614997,39,52,28,51,36,30,67
16620025,40,56,29,50,34,30,66
16625054,45,71,28,50,33,30,66
16630082,46,68,29,50,33,30,65
16635109,48,68,28,49,34,30,66
16640138,47,69,28,50,33,30,67
16645168,46,67,28,50,32,30,65
16650196,45,72,29,49,40,30,66
16655224,46,81,29,49,51,31,66
16660075,48,94,28,49,65,30,66
16665104,49,93,28,50,62,30,66
16670132,49,88,28,49,61,30,66
16675161,60,88,28,50,60,30,65
16680190,65,98,28,50,57,30,65
16685220,80,95,29,50,62,31,65
16690249,84,95,29,50,67,30,66
16695278,92,90,28,49,69,30,66
16700307,95,90,28,50,71,31,66
16705336,93,98,28,50,82,31,65
16710380,97,104,28,51,83,31,66
16715431,94,100,28,54,79,31,66
16720459,88,96,28,59,75,31,65
16725519,83,90,28,65,99,31,66
16730548,77,84,28,66,106,33,66
16735577,76,79,28,68,101,33,66
16740537,73,80,28,66,121,34,66
16745549,88,86,29,64,128,34,66
16750560,89,92,28,63,134,34,66
16755572,101,128,28,60,134,34,66
16760583,105,149,28,58,126,34,66
16765594,102,165,28,57,121,34,66
16770606,112,152,28,56,121,35,65
16775617,105,140,28,55,116,35,66
16780628,97,129,28,54,116,34,66
16785640,91,120,28,54,141,37,66
16790651,86,111,28,52,156,37,66
16795662,81,103,28,52,154,36,66
16800674,76,97,28,51,163,36,66
16805685,73,97,28,51,170,36,66
16810697,79,110,28,50,154,35,66
16815709,76,105,28,49,141,35,66
16820564,72,102,29,49,133,34,66
16825575,70,97,28,50,129,34,66
16830587,67,91,28,49,124,34,66
16835599,64,85,28,48,114,33,66
16840611,61,80,28,49,108,33,66
16845623,59,75,29,49,116,33,65
16850652,56,71,28,49,116,33,65
16855663,54,67,29,48,117,32,65
16860674,53,68,28,48,112,32,65
16865686,58,87,28,49,105,32,65
16870698,68,111,29,48,97,33,65
16875710,72,110,28,49,94,32,65
16880722,70,109,28,48,90,32,65
16885733,67,108,29,48,84,32,65
16890759,64,101,29,48,77,32,65
16895770,61,95,29,48,73,32,66
16900642,59,89,28,48,68,33,66
16905647,56,83,28,48,66,32,70
16910650,54,78,28,48,62,32,70
16915653,53,74,28,47,57,32,69
16920656,52,73,28,48,58,32,69
16925661,51,73,29,47,57,32,69
16930666,56,82,28,47,65,32,69
16935670,56,89,28,47,81,34,69
16940674,58,102,28,47,110,34,69
16945680,58,104,28,47,116,35,68
16956356,54,90,28,47,111,35,68
16961268,52,85,28,47,109,34,68
16966205,51,79,29,47,100,34,68
16971143,49,75,28,47,92,34,67
16976082,48,71,28,46,85,33,67
16981021,47,68,28,46,80,33,67
16985775,46,64,28,46,74,33,67
16990636,45,63,28,47,72,33,67
16995524,45,62,29,46,71,33,67
17000428,44,64,29,46,87,32,67
17005332,43,65,28,47,89,32,66
17010236,47,65,28,47,94,32,66
17015140,46,68,29,48,91,32,66
17020045,45,65,29,47,90,31,67
17024949,45,62,29,47,84,31,66
17029853,44,59,28,47,78,32,67
17034758,44,57,29,47,73,31,66
17039662,43,54,29,47,68,31,66
17044567,42,52,28,46,78,32,66
17049472,42,52,28,46,82,33,67
17054377,43,55,28,46,97,33,66
17059282,47,76,29,47,93,32,67
17064367,51,78,29,49,92,32,66
17069352,52,96,29,48,85,32,66
17074334,59,92,28,48,90,32,65
17079318,57,88,28,48,86,31,63
17084317,55,83,28,48,92,32,64
17089300,53,78,28,47,95,32,64
17094299,52,74,28,47,88,31,64
17099305,50,70,28,47,83,31,64
17104304,49,66,28,46,78,31,65
17109287,48,63,28,47,74,31,65
17114270,46,60,28,47,73,31,65
17119254,56,63,29,47,68,31,65
17124237,76,82,29,47,68,30,65
17129220,89,109,28,47,66,31,64
17134206,85,110,28,47,74,31,64
17139190,98,126,29,47,76,30,64
17144174,94,136,28,47,72,31,65
17149056,89,127,28,46,67,30,65
17154123,84,119,28,46,62,30,65
17159188,79,109,28,46,57,30,65
17164254,74,101,28,46,54,30,65
17169323,70,94,28,47,50,30,65
17174389,67,88,28,47,47,30,65
17179454,64,82,28,48,46,30,65
17184521,63,79,28,47,64,30,65
17189589,86,78,28,47,65,30,65
17194655,94,94,28,47,63,31,65
17199720,88,119,28,47,76,30,65
17204788,92,129,28,47,79,30,65
17209857,87,121,28,47,73,30,65
17214923,81,116,28,47,68,30,65
17219990,77,107,28,48,63,30,65
17225058,73,100,29,48,59,31,65
17230042,69,93,28,50,56,31,66
17235109,66,87,28,55,52,30,66
17240177,63,90,28,54,49,30,65
17245245,78,95,28,53,46,30,65
17250313,82,106,28,52,44,30,66
17255381,89,116,28,52,41,30,65
17260450,90,131,28,51,39,30,66
17265540,85,124,28,50,37,30,66
17270608,80,115,28,50,35,30,66
17275677,76,106,28,49,34,30,66
17280745,71,99,28,49,32,30,66
17285814,68,92,28,49,31,30,66
17290883,65,86,28,49,30,30,66
17295951,62,81,29,48,29,31,66
17301019,60,76,28,48,28,30,66
17306087,62,74,28,48,28,30,66
17311118,70,80,28,47,27,30,66
17316186,72,85,28,47,27,30,65
17321261,70,83,28,47,26,30,63
17326329,68,85,28,47,25,30,64
17331397,65,81,28,47,25,30,64
17336466,62,77,28,46,24,30,64
17341544,59,73,28,46,24,30,64
17346620,57,69,28,46,24,30,64
17351717,55,66,28,46,23,30,65
17356791,53,68,28,46,24,30,65
17361877,52,68,28,46,23,30,65
17366945,50,65,28,48,23,30,65
17372013,49,72,28,50,22,29,65
17377082,48,98,28,49,22,30,65
17382179,49,132,28,49,22,30,65
17387253,48,125,28,49,22,30,65
17392321,49,116,28,48,22,30,65
17397304,48,108,28,48,22,30,65
17402372,47,100,28,48,22,29,66
17407441,46,94,29,50,22,30,66
17412508,45,87,28,54,22,30,66
17417576,45,82,29,54,21,30,66
17422644,44,77,28,53,21,30,67
17427713,43,73,28,52,21,29,66
17432781,43,69,28,51,21,30,66
17437849,42,65,28,51,21,30,66
17442918,41,62,28,50,21,29,66
17447986,41,59,28,49,21,30,66
17453054,41,57,28,49,21,29,66
17458123,41,56,28,51,21,30,66
17463202,40,54,28,52,21,30,66
17468271,40,52,29,57,21,30,66
17473340,40,50,28,59,21,30,66
17478345,40,49,28,59,21,29,66
17483413,40,47,28,58,21,29,66
17488480,40,46,28,56,21,30,66
17493549,41,46,28,55,21,30,66
17498618,52,53,28,54,21,30,65
17503686,52,51,28,53,21,30,66
17508754,51,50,28,53,21,29,66
17513825,50,49,28,52,21,29,66
17518893,48,49,28,52,21,30,66
17523961,47,46,28,52,21,30,66
17529030,47,45,28,55,21,29,66
17534100,45,45,28,56,21,30,66
17539170,44,44,29,59,21,30,67
17544238,44,43,29,59,21,29,66
17549308,43,42,28,58,21,29,66
17554379,49,42,28,59,25,29,66
17559448,64,85,29,58,30,30,67
17564432,94,141,28,57,40,30,66
17569504,124,145,28,56,45,30,65
17574575,119,141,29,54,63,30,65
17579645,110,137,28,53,65,30,65
17584717,111,135,28,54,65,30,65
17589788,106,133,29,54,86,29,65
17594860,99,125,29,53,84,30,65
17599931,92,116,28,53,86,30,65
17605005,87,108,28,53,88,31,65
17610080,83,101,28,53,103,31,65
17615155,81,125,29,53,107,31,65
17620229,103,178,28,52,107,30,65
17625305,137,226,28,52,111,30,65
17630380,138,213,28,51,107,30,65
17635456,128,196,28,50,116,29,65
17640393,120,180,28,50,200,34,65
17645384,112,173,29,50,233,35,65
17650375,111,172,28,49,247,36,65
17655367,112,162,28,49,241,36,65
17660358,107,158,28,49,219,36,64
17665349,110,147,29,49,204,35,65
17670340,109,173,28,49,186,36,64
17675332,125,202,28,49,175,35,65
17680323,150,210,28,48,161,35,65
17685314,149,221,28,48,149,34,65
17690305,137,208,29,48,140,34,65
17695296,130,195,28,47,139,34,65
17700288,126,211,28,48,140,33,65
17705279,137,196,28,47,139,33,64
17710271,133,183,28,47,126,33,64
17717764,141,173,29,47,126,33,62
17722634,140,169,28,47,145,34,62
17727468,148,189,29,47,168,34,62
17732324,148,181,28,47,158,34,63
17737169,140,176,28,47,146,34,64
17742030,134,198,28,47,157,33,63
17746881,127,201,28,47,149,33,63
17751726,128,196,28,49,139,33,64
17756582,124,203,28,52,136,33,64
17761443,123,207,28,51,125,32,65
17766309,122,204,28,51,116,32,64
17771176,157,214,29,51,109,32,64
17776020,150,218,29,52,102,32,64
17780871,167,213,28,54,101,32,65
17785724,173,249,28,57,103,32,65
17790584,161,250,28,56,102,32,64
17795563,152,254,28,58,96,32,64
17800520,148,252,29,67,101,31,65
17805445,148,235,28,79,106,31,64
17810370,139,221,28,77,102,31,64
17815294,139,222,28,75,93,31,64
17820219,131,224,29,74,89,30,64
17825152,133,233,28,74,82,31,64
17830109,131,274,28,77,78,31,64
17835033,128,300,28,74,90,31,64
17839958,124,341,29,72,98,31,65
17844896,122,339,28,70,96,30,64
17849820,117,330,29,70,110,30,65
17854747,112,309,28,70,118,31,64
17859687,112,286,29,71,117,31,64
17864612,106,268,29,77,109,30,64
17869417,101,245,28,81,101,30,64
17874337,108,226,28,80,104,31,64
17879255,115,238,28,77,112,32,64
17884172,122,244,28,76,110,33,64
17889091,118,236,28,75,106,33,64
17894011,113,244,28,73,119,33,64
17898937,109,260,29,72,111,33,64
17903855,105,259,28,72,110,33,64
17908776,113,296,28,72,105,32,63
17913695,113,298,29,72,98,33,63
17918612,125,351,28,74,92,33,63
17923531,128,364,28,76,89,34,63
17928452,122,339,29,86,122,36,62
17933371,114,343,28,83,144,36,61
17938289,108,328,29,79,144,35,61
17943083,101,306,28,76,133,35,62
17948002,95,298,28,72,131,35,62
17952922,88,293,28,70,121,34,63
17957840,85,268,28,68,116,34,63
17962759,81,248,28,66,110,34,63
17967679,76,227,28,64,101,33,63
17972598,87,220,28,63,94,33,63
17977517,86,228,28,62,86,33,63
17982437,93,215,28,60,89,33,64
17987356,95,206,28,59,103,34,63
17992276,107,194,28,58,111,34,64
17997198,107,178,28,56,102,33,64
18002156,104,203,28,55,94,33,64
18007076,109,230,28,54,86,33,64
18011996,102,226,28,54,80,33,65
18016907,100,232,28,53,73,32,64
18021823,95,228,28,52,69,32,64
18026741,89,212,28,51,70,32,64
18031658,87,226,28,51,68,31,64
18036575,84,241,28,53,64,31,64
18041492,89,256,28,52,59,31,64
18046409,93,251,28,51,55,31,64
18051326,99,229,28,51,51,31,65
18056242,93,213,29,50,50,30,64
18061159,87,198,28,50,48,30,65
18066076,84,196,28,50,46,30,64
18070993,80,205,28,51,44,30,64
18075910,75,195,28,52,41,30,65
18080827,73,192,28,51,39,30,65
18085745,69,195,28,54,37,30,64
18090662,68,188,29,53,36,31,64
18095540,71,205,28,52,34,30,64
18100457,72,210,28,52,33,30,65
18105375,70,228,29,51,32,30,65
18110292,67,214,29,51,31,30,65
18115209,69,219,28,51,28,30,65
18120126,70,210,28,50,29,30,65
18125044,66,200,28,50,28,30,64
18129961,65,190,28,52,34,31,63
18134878,62,195,28,53,52,33,64
18139795,59,195,28,53,66,34,65
18144712,57,184,28,52,64,34,65
18149630,59,180,29,53,70,33,67
18154547,55,187,29,53,66,33,67
18159464,57,188,28,53,61,33,68
18164381,60,179,29,52,57,33,67
18169299,61,184,28,52,53,32,67
18174193,59,170,29,54,50,32,66
18179140,57,158,28,57,47,32,65
18184086,55,145,28,57,44,30,65
18189034,53,136,28,57,43,31,64
18193981,52,125,28,56,40,31,63
18198927,50,116,28,54,38,31,63
18203874,49,108,28,54,36,31,64
18208823,54,129,28,53,35,31,64
18213769,53,159,28,52,33,31,63
18218716,53,152,28,52,32,31,63
18223664,60,150,29,52,30,30,62
18234346,58,128,29,52,28,30,63
18239182,56,121,29,53,28,30,63
18244063,54,116,28,52,27,30,63
18248944,52,112,28,51,26,30,63
18253825,50,106,28,51,26,29,63
18258555,49,99,28,50,26,31,64
18263360,50,99,28,50,26,31,64
18268165,49,107,28,49,26,31,64
18272976,49,124,28,49,25,31,64
18277826,49,140,28,50,24,30,64
18282675,50,161,28,49,24,30,64
18287524,49,148,29,50,24,31,65
18292374,48,137,28,51,23,30,64
18297223,47,128,28,52,23,30,64
18302072,46,119,28,52,23,31,64
18306921,46,111,29,51,22,30,65
18311771,45,104,28,51,22,30,64
18316621,44,97,29,50,22,31,65
18321471,44,96,28,50,22,31,65
18326321,43,104,28,49,22,32,65
18331170,45,111,28,49,22,31,65
18336202,48,120,28,49,21,31,65
18341119,48,118,28,48,22,30,65
18346027,48,129,28,49,22,31,65
18350935,46,138,28,49,22,31,65
18355844,46,136,29,50,21,30,65
18360752,45,130,28,49,21,30,65
18365703,44,121,29,49,21,30,65
18370621,43,113,28,49,21,30,65
18375529,43,105,29,49,21,30,65
18380459,42,100,28,48,21,30,65
18385367,42,98,28,48,22,31,65
18390275,44,97,28,48,21,30,65
18395185,44,96,29,48,21,30,65
18400093,52,95,29,47,21,30,65
18405002,54,97,28,47,21,30,65
18409912,54,96,28,47,21,30,65
18414821,52,90,29,47,21,30,65
18419575,51,86,28,48,21,30,65
18424565,49,81,28,48,21,30,65
18429558,48,76,28,49,21,30,65
18434549,47,103,28,48,21,30,65
18439539,52,135,28,48,21,30,65
18444531,53,146,28,49,21,30,65
18449524,56,150,29,48,21,30,65
18454515,54,148,29,48,21,30,64
18459506,52,140,28,48,21,30,66
18464499,51,135,29,48,21,30,65
18469492,49,126,28,51,21,31,65
18474483,48,116,28,58,21,30,65
18479474,48,108,28,57,21,30,65
18484468,46,101,28,56,21,30,65
18489461,45,95,28,55,21,30,65
18494463,44,88,29,54,21,30,66
18499320,44,84,28,53,21,31,65
18504305,43,87,28,52,21,30,66
18509290,52,96,28,53,21,30,66
18514274,57,99,29,51,21,30,66
18519259,55,112,28,50,21,30,66
18524244,53,105,28,50,21,30,66
18529230,53,99,28,50,21,30,65
18534215,50,92,28,51,21,30,65
18539200,49,88,28,50,21,29,65
18544185,48,96,29,49,21,29,65
18549171,47,105,28,50,21,30,66
18554157,46,98,28,50,20,29,66
18559143,46,92,28,49,21,30,66
18564129,45,94,28,49,21,31,66
18569115,45,97,28,49,23,30,66
18574101,44,103,28,49,24,30,66
18579014,44,102,28,48,24,30,66
18584000,43,96,28,48,24,31,65
18588985,45,94,29,48,23,30,66
18593971,46,91,28,48,23,30,66
18598956,47,85,28,50,27,30,66
18603941,45,81,28,50,33,30,66
18608926,44,83,28,49,34,30,66
18613911,46,91,28,49,36,30,66
18618897,52,98,29,49,34,30,66
18623882,50,103,29,49,42,30,66
18628867,50,112,28,48,41,30,66
18633853,49,106,28,48,39,30,66
18638838,47,100,29,48,37,30,66
18643824,47,98,28,48,35,30,66
18648813,46,97,28,47,34,30,66
18653799,47,93,28,47,33,30,66
18658784,46,87,28,47,32,29,65
18663768,45,82,28,47,30,30,66
18668752,44,77,28,48,29,31,66
18673736,44,76,28,47,29,30,66
18678720,43,80,28,48,28,31,66
18683703,42,90,28,47,27,30,66
18688687,43,97,28,47,27,31,65
18693671,46,108,28,46,26,30,66
18698653,46,109,28,47,25,30,65
18703637,46,120,29,47,25,30,66
18708620,45,126,28,48,24,29,66
18713603,45,122,28,47,24,30,66
18718587,44,116,28,48,24,31,65
18723569,43,107,28,49,24,30,66
18728551,43,100,28,49,23,30,66
18733535,42,93,28,48,24,30,66
18738518,41,87,28,48,24,30,65
18743362,41,84,28,48,24,30,66
18748347,42,84,28,49,24,30,66
18753331,41,84,28,48,24,30,66
18758315,41,80,28,47,23,30,65
18763300,42,81,28,47,23,30,66
18768286,42,89,28,47,22,30,65
18773270,43,100,29,47,23,31,65
18778254,45,96,28,46,25,31,65
18783239,45,90,28,47,26,30,64
18788226,44,84,28,48,26,30,66
18793210,43,80,29,48,30,30,67
18798194,43,76,29,48,30,30,66
18803181,42,74,28,47,29,30,65
18808167,42,71,28,47,28,30,66
18813151,41,78,28,47,28,30,66
18818137,41,89,28,47,27,31,66
18823100,42,95,29,47,26,30,66
18828117,43,103,28,47,26,30,66
18833131,42,104,28,47,25,30,66
18838147,43,108,28,47,26,30,66
18843163,42,100,29,47,24,30,66
18848180,42,94,28,47,25,31,66
18853195,42,88,28,47,24,30,66
18858211,41,82,28,47,23,30,66
18863227,41,79,28,48,23,30,66
18868244,41,74,28,48,23,30,66
18873261,41,76,28,48,22,30,66
18878281,43,83,28,48,22,30,66
18883302,42,88,28,47,22,30,66
18888322,46,88,28,47,22,30,66
18893353,47,89,28,47,22,29,66
18898373,46,101,29,46,22,30,66
18903393,47,103,28,46,22,30,66
18908192,45,103,28,46,22,30,66
18913127,45,99,28,46,22,30,66
18918062,44,98,28,46,22,30,66
18922997,44,93,28,46,22,30,66
18927932,43,87,28,46,22,30,66
18932868,42,82,28,46,23,30,66
18937803,42,79,28,46,23,30,66
18942738,46,78,28,46,23,30,66
18947673,48,87,28,46,23,30,65
18952608,50,98,28,46,23,30,66
18957543,50,111,28,46,23,30,66
18962479,48,110,28,46,22,30,66
18967414,48,110,28,46,22,30,66
18972349,49,108,28,46,22,30,66
18977285,49,112,29,46,22,30,66
18982220,48,130,28,47,22,30,66
18987214,47,159,28,45,22,30,66
18992217,46,147,28,45,22,30,66
18997218,46,136,28,45,21,30,66
19002219,44,125,28,45,21,30,66
19007219,44,119,28,45,22,30,66
19012231,43,116,28,45,21,30,66
19017276,42,117,28,46,22,30,66
19022309,42,115,28,46,21,30,66
19027330,42,123,28,46,21,30,66
19032350,48,132,28,46,21,30,66
19037374,48,125,28,45,21,30,65
19042434,47,116,28,46,21,30,66
19047440,46,112,28,46,21,30,66
19052454,45,107,28,46,21,30,66
19057455,45,99,28,46,21,30,66
19062481,44,92,29,45,22,30,66
19067365,43,87,29,46,21,31,66
19072474,43,81,29,45,21,30,66
19077578,42,76,28,46,21,30,66
19082662,42,77,28,46,21,30,66
19087747,42,82,27,46,21,31,66
19092837,42,81,27,46,21,30,66
19097921,43,96,28,46,21,29,66
19103023,46,94,28,46,21,30,66
19108106,46,97,28,46,21,30,66
19113211,45,106,28,46,21,30,66
19118294,45,112,28,46,21,30,66
19123378,45,104,28,45,21,30,66
19128463,44,104,28,46,21,30,66
19133546,43,106,28,46,21,31,66
19138630,44,105,28,47,21,30,66
19143738,43,101,28,46,21,31,66
19148785,42,98,28,46,21,30,66
19153860,42,93,28,47,21,30,66
19158935,43,97,28,46,21,30,66
19164013,43,93,28,46,20,30,66
19169091,42,88,28,46,21,30,66
19174166,42,85,29,46,21,30,66
19179242,41,90,28,46,20,30,66
19184320,41,103,28,46,21,30,66
19189399,41,118,28,46,21,30,66
19194474,41,114,29,46,21,30,66
19199564,41,105,28,46,21,30,66
19204643,40,98,28,46,21,30,66
19209721,40,93,28,46,21,30,66
19214796,40,94,28,46,21,30,67
19219875,40,93,28,46,21,30,66
19224953,39,109,29,46,21,30,66
19230032,40,132,28,45,21,29,66
19234962,40,126,28,46,21,30,66
19240040,40,128,28,46,21,30,66
19245118,41,135,28,46,21,30,66
19250196,41,136,28,46,21,30,66
19255275,45,133,29,46,21,30,66
19260353,44,125,28,46,21,30,66
19265431,43,123,29,46,21,30,66
19270510,43,121,28,46,21,30,66
19275588,42,112,28,46,21,30,66
19280679,42,104,28,46,21,30,66
19285758,42,100,28,45,21,30,66
19290836,41,96,28,46,21,30,66
19295933,41,93,28,46,21,30,66
19301011,41,88,28,46,21,30,66
19306089,42,89,28,46,21,30,66
19311167,44,98,28,46,21,30,67
19316116,48,107,28,46,21,30,66
19321191,51,105,29,46,21,30,66
19326266,52,107,28,46,21,30,66
19331341,51,100,28,45,21,30,66
19336416,50,93,28,46,21,30,66
19341492,49,90,27,46,21,30,66
19346569,48,85,28,46,21,31,66
19351645,46,79,28,46,21,31,66
19356721,46,75,28,46,20,31,66
19361797,45,71,28,45,21,31,66
19366873,44,67,28,46,21,31,66
19371949,43,65,28,46,21,31,66
19377025,43,70,28,45,21,30,66
19382102,42,81,28,45,21,30,66
19387178,42,87,28,45,21,30,66
19392254,44,97,28,44,20,30,66
19397242,44,108,28,45,21,30,66
19402318,44,124,28,45,21,30,66
19407393,45,147,28,45,21,30,66
19412469,45,137,28,45,21,31,64
19417545,44,126,28,45,21,31,66
19422621,43,117,28,45,21,31,67
19427697,43,108,28,45,21,30,72
19432773,42,101,29,45,21,30,73
19437850,42,94,28,45,21,31,72
19442926,41,88,29,45,20,30,72
19448002,41,84,29,46,21,30,72
19453078,49,85,28,46,21,30,71
19458154,49,84,28,45,21,30,70
19463230,48,83,29,47,21,31,70
19468307,49,88,28,49,20,30,69
19473384,48,82,28,50,20,31,69
19478442,47,78,28,49,21,32,69
19483548,46,78,28,49,23,31,69
19488654,45,74,28,49,26,31,69
19493762,44,70,28,49,26,31,69
19498868,43,66,29,48,27,31,68
19503974,43,63,28,48,27,31,68
19509081,42,65,28,49,26,30,68
19519912,42,122,28,49,25,30,68
19524907,43,114,28,49,24,30,68
19529946,44,109,28,48,24,30,67
19534987,44,108,28,48,24,30,67
19540027,44,102,28,48,23,30,67
19545069,43,95,28,48,24,31,67
19550110,42,96,28,47,24,30,67
19555152,42,97,28,47,28,30,66
19560200,42,91,28,47,32,30,66
19565290,42,85,29,46,32,30,66
19570159,41,81,28,47,31,30,66
19575166,41,79,28,47,30,30,66
19580172,41,78,28,48,29,30,66
19585178,43,76,28,48,28,30,66
19590184,42,72,28,48,27,30,66
19595191,42,69,28,47,27,30,66
19600197,41,70,28,47,26,30,66
19605204,41,68,28,47,29,31,66
19610211,41,65,28,47,37,31,66
19615218,40,64,28,47,41,30,65
19620225,40,65,28,47,45,31,66
19625232,40,62,28,47,44,30,65
19630239,40,61,28,47,42,30,66
19635246,40,57,28,47,39,29,65
19640253,40,65,28,46,37,30,65
19645260,40,80,28,47,36,31,66
19649863,40,91,28,46,35,30,65
19654440,39,87,28,47,33,30,65
19659048,40,82,28,47,32,30,65
19663673,40,78,28,47,31,30,66
19668275,41,74,28,47,32,30,65
19672876,41,70,28,46,32,31,65
19677478,40,67,29,48,31,30,65
19682079,39,64,28,48,31,30,65
19686682,39,61,28,49,30,30,65
19691284,39,59,28,49,29,30,65
19695886,39,56,28,49,28,30,65
19700489,39,57,28,50,33,30,65
19705092,38,65,28,50,33,30,65
19709694,39,85,28,51,32,30,65
19714298,39,103,29,50,31,30,65
19718901,40,103,29,50,30,30,65
19723503,40,104,29,50,29,30,65
19727951,40,98,28,49,30,30,65
19732635,39,92,29,49,29,30,65
19737317,39,87,29,48,28,30,65
19741999,39,82,28,48,32,30,65
19746682,39,78,29,48,31,30,65
19751366,39,74,28,48,33,30,65
19756048,39,71,28,47,38,31,65
19760730,39,67,28,48,37,30,65
19765414,39,64,29,49,38,30,65
19770098,39,61,28,49,37,31,65
19774781,39,59,29,50,36,30,65
19779464,42,70,28,49,35,30,65
19784148,45,89,28,50,33,30,65
19788832,45,87,29,49,32,30,65
19793515,44,82,29,49,31,30,65
19798199,45,78,29,50,30,30,65
19802823,44,74,28,49,31,30,65
19807499,43,70,29,49,32,30,65
19812174,43,67,28,49,50,31,65
19816851,42,64,28,48,62,32,70
19821527,42,62,29,48,78,32,76
19826202,42,62,28,48,76,32,74
19830879,41,62,28,48,80,32,75
19835555,41,68,28,48,81,32,75
19840231,41,76,29,47,78,32,74
19844908,41,74,29,47,72,31,74
19849611,40,81,28,47,68,31,73
19854287,40,78,29,47,62,31,73
19858964,42,92,28,47,67,31,72
19863641,43,103,28,47,72,32,72
19868326,42,99,29,48,76,31,71
19873003,42,94,29,49,71,31,71
19877679,42,88,28,48,71,30,71
19882209,41,83,29,49,67,30,70
19886885,42,78,29,48,62,30,70
19891568,41,74,28,48,58,31,70
19896257,40,70,28,48,55,31,84
19900942,40,67,28,49,51,31,95
19905636,40,64,28,50,49,32,94
19910311,40,61,29,49,46,31,92
19914987,40,60,28,49,45,31,90
19919664,40,71,28,50,50,32,89
19924340,43,94,28,53,60,32,87
19929016,44,93,28,55,71,36,86
19933692,43,88,28,54,93,37,84
19938368,42,83,29,52,116,39,83
19943044,42,79,29,52,112,38,82
19947720,42,74,28,51,119,38,82
19952397,41,71,29,50,111,36,88
19957006,41,68,28,50,102,36,88
19961680,41,68,28,50,96,35,86
19966355,42,89,29,50,89,35,85
19971029,41,111,29,53,83,34,83
19975703,41,110,28,55,78,34,82
19980376,41,103,29,54,72,35,81
19985049,41,98,28,53,80,37,80
19989723,40,94,29,52,80,36,79
19994397,40,95,29,52,79,36,78
19999112,40,92,29,52,74,36,80
20003786,40,87,29,52,69,36,81
20008460,40,82,29,51,64,35,80
20013134,39,77,29,50,59,34,82
20017809,40,74,28,50,56,33,81
20022483,39,74,29,49,52,33,80
20027158,39,74,28,49,49,32,79
20031816,39,78,29,49,46,33,78
20036491,40,87,29,48,44,33,77
20041165,44,94,29,48,42,32,76
20045840,44,100,29,48,39,32,76
20050516,43,105,28,49,38,32,75
20055192,43,100,29,48,36,32,75
20059866,42,95,29,47,35,32,74
20064541,42,89,29,47,33,31,74
20069218,41,84,29,47,32,32,73
20073893,40,79,28,47,31,32,73
20078568,41,75,28,47,30,31,72
20083245,41,71,29,47,29,32,72
20087922,40,68,29,46,28,31,72
20092597,40,64,28,47,27,31,71
20097273,40,61,29,46,27,31,71
20101950,40,59,29,46,26,31,70
20106627,39,57,29,46,26,31,70
20111220,39,56,29,46,25,31,70
20115926,39,54,29,46,25,31,70
20120632,39,58,28,47,24,31,69
20125338,39,71,28,46,24,31,69
20130045,39,72,28,46,24,31,69
20134753,39,69,28,46,23,30,69
20139463,39,65,28,46,23,30,69
20144173,39,62,28,46,23,31,68
20148881,39,60,29,46,23,31,68
20153612,38,57,28,46,22,31,68
20158322,39,55,28,46,22,31,68
20163031,38,53,28,47,22,31,68
20167741,38,52,29,46,22,31,68
20172451,38,50,29,45,22,32,68
20177161,38,49,29,46,22,31,68
20181870,38,47,28,46,22,31,67
20186434,38,46,28,45,21,31,67
20191060,38,45,28,45,21,31,67
20195687,38,44,29,45,21,31,67
20200314,38,44,29,46,22,30,67
20204941,38,43,28,46,24,30,67
20209568,38,42,28,46,24,31,68
20214196,38,42,28,48,24,30,67
20218823,38,41,28,49,23,31,67
20223450,38,41,28,49,23,31,66
20228077,38,40,28,48,23,32,67
20232704,38,40,28,50,23,32,67
20237331,38,39,28,51,23,32,67
20241958,38,39,29,53,23,32,67
20246585,38,39,29,53,24,32,67
20251212,38,38,28,55,27,32,66
20255861,38,38,28,55,32,32,66
20260488,40,38,29,56,40,32,66
20265196,43,38,29,54,41,32,66
20269963,45,38,28,54,42,32,66
20274697,46,37,28,54,44,32,66
20279420,45,37,28,52,42,32,66
20284133,45,37,28,52,42,31,66
20288847,45,37,28,51,40,32,66
20293575,44,37,28,51,37,32,66
20298294,43,37,29,51,36,32,66
20303016,44,37,29,50,35,32,66
20307779,44,37,28,50,37,32,66
20312493,44,37,29,49,38,32,66
20317232,43,38,28,50,37,32,66
20321945,43,37,28,49,38,32,66
20326659,45,37,28,49,47,32,66
20331387,45,37,28,49,49,32,66
20336101,49,36,29,48,46,31,66
20340797,55,37,28,48,45,32,65
20345607,55,37,28,48,45,33,66
20350402,54,36,28,48,42,34,65
20355204,52,36,29,48,41,34,65
20359998,50,36,28,48,39,34,65
20364792,49,36,28,48,37,34,65
20369587,48,36,29,47,35,33,66
20374412,48,36,28,48,33,33,65
20379206,46,36,28,47,33,32,65
20384001,45,36,28,47,31,32,65
20388796,44,37,28,48,30,32,65
20393592,45,36,28,48,29,32,65
20398398,47,37,29,48,29,32,66
20403193,49,39,28,48,27,33,65
20408013,48,38,28,47,27,34,65
20412808,47,39,28,47,26,34,65
20417602,46,38,29,47,26,33,65
20422281,45,38,28,46,25,33,65
20427069,45,38,28,48,25,32,65
20431856,44,38,28,46,24,32,65
20436642,43,38,27,46,24,32,65
20441431,43,38,28,46,24,32,65
20446220,42,37,28,46,23,32,65
20451007,42,37,29,46,23,31,65
20455795,41,37,28,46,23,31,65
20460584,41,38,28,46,22,30,65
20465372,43,43,28,46,22,32,66
20470160,46,45,28,46,22,31,65
20474948,46,47,28,46,22,32,65
20479737,45,46,28,46,22,31,65
20484525,45,46,28,46,22,31,65
20489314,44,45,28,46,22,31,66
20494103,43,44,28,46,22,31,65
20498872,42,43,28,46,22,31,65
20503660,42,42,28,46,22,30,65
20508448,42,41,28,46,22,31,65
20513261,41,41,28,45,21,30,65
20518049,41,41,28,46,21,30,65
20522837,41,40,28,46,22,31,65
20527625,40,40,29,46,21,31,66
20532413,40,40,28,46,21,31,65
20537201,40,39,28,46,21,30,65
20541989,40,39,28,46,21,30,65
20546777,39,39,28,46,21,30,65
20551565,39,39,29,46,21,30,65
20556353,39,38,28,46,22,30,65
20561141,39,38,28,46,21,30,65
20565929,39,38,29,48,22,30,65
20570717,39,39,29,48,21,31,65
20575505,39,38,28,48,22,33,65
20580224,39,39,29,48,21,32,65
20585011,39,41,28,48,21,32,65
20589797,38,41,28,49,21,32,65
20594583,38,41,28,50,21,32,65
20599369,39,41,28,55,21,31,65
20604156,38,45,29,59,21,32,65
20608942,39,51,29,61,21,31,65
20613728,39,54,28,61,22,31,65
20618514,39,57,29,61,21,31,65
20623300,40,62,29,64,21,31,65
20628087,41,65,28,62,21,31,65
20632873,40,76,29,60,22,31,65
20637659,40,84,29,59,21,32,66
20642445,41,83,29,58,21,32,66
20647231,41,79,28,58,21,32,65
20652017,40,76,29,57,21,32,64
20656786,41,77,29,56,21,32,64
20661573,46,75,28,56,21,32,64
20666359,46,97,28,55,21,32,63
20671145,47,126,29,58,21,32,64
20675931,46,128,29,65,30,32,64
20680718,46,121,29,68,48,32,63
20685504,45,120,29,66,62,32,64
20690290,45,121,29,67,65,32,65
20695076,47,120,29,70,66,32,64
20699863,46,140,29,73,65,31,67
20704650,46,137,29,75,90,32,66
20709436,50,131,29,72,141,33,65
20714222,53,138,28,72,187,34,66
20719008,56,150,28,71,188,36,70
20723794,59,142,29,74,185,37,70
20728580,60,147,28,79,230,37,76
20733352,62,139,29,86,285,37,77
20743850,65,169,28,93,292,44,80
20748590,72,171,28,89,271,43,79
20753354,68,176,28,84,250,42,79
20758120,66,172,29,80,233,41,84
20762886,63,158,28,77,221,41,84
20767652,61,146,28,74,202,41,83
20772419,62,137,29,71,185,40,100
20777185,59,134,28,69,204,41,98
20781980,57,128,28,67,218,44,105
20786795,70,138,28,65,239,44,115
20791610,75,148,29,63,238,43,117
20796424,81,166,28,61,220,41,119
20801240,78,166,28,60,208,40,121
20806055,83,168,28,60,198,39,121
20810870,80,158,28,59,191,38,122
20815453,75,147,28,59,181,37,119
20820186,72,136,28,58,181,38,116
20824920,69,126,29,57,208,41,121
20829654,67,118,28,56,213,41,129
20834388,63,110,28,56,224,41,168
20839122,61,102,28,55,209,42,190
20843855,58,104,29,56,213,42,191
20848589,59,108,28,56,211,44,192
20853323,60,121,29,58,238,49,189
20858057,61,118,29,57,236,54,195
20862791,63,116,29,56,217,52,202
20867525,69,112,28,56,205,50,208
20872268,70,124,28,54,198,48,212
20877001,79,140,28,54,189,48,216
20881735,76,129,29,54,176,46,221
20886538,71,121,28,55,174,47,219
20891384,68,113,29,55,160,48,226
20896231,65,105,28,65,167,47,236
20901078,62,98,28,74,209,50,241
20905925,59,92,28,74,241,49,259
20910773,57,86,28,73,230,49,276
20915621,55,82,28,70,246,52,290
20920468,55,79,28,69,238,51,302
20925316,52,75,28,67,219,49,313
20930164,51,73,28,65,204,47,324
20935013,56,81,28,62,195,46,333
20939860,54,78,28,62,210,50,345
20944707,52,74,28,62,229,55,355
20949557,50,70,28,62,245,60,364
20954405,49,67,28,62,233,59,356
20959162,48,64,28,62,217,58,361
20964091,47,61,28,73,205,55,389
20969021,46,58,28,87,194,52,405
20973949,45,56,28,90,193,51,413
20978877,44,54,28,90,189,50,434
20983807,44,52,28,86,197,48,448
20988736,43,57,28,82,224,54,460
20993665,42,60,28,79,240,59,471
20998593,42,62,28,77,234,61,482
21003523,42,60,28,79,215,58,489
21008453,41,57,28,80,199,55,489
21013382,41,56,28,77,184,54,487
21018312,41,53,28,80,167,51,501
21023242,40,52,28,91,179,50,506
21028171,40,50,28,99,177,49,526
21033101,41,48,29,104,164,49,541
21037882,40,47,28,129,164,48,551
21042807,39,46,28,154,176,50,562
21047722,39,45,28,158,160,48,571
21052637,39,44,28,154,149,45,580
21057553,40,43,28,147,136,45,588
21062469,39,42,28,146,124,43,591
21067385,39,42,28,138,114,41,582
21072301,38,41,28,151,106,41,593
21077217,39,41,28,164,103,39,606
21082133,38,40,28,174,99,38,615
21087049,38,40,28,167,94,38,623
21091974,39,39,28,166,90,37,629
21096890,38,39,28,164,98,37,636
21101806,38,39,29,154,109,38,642
21106722,38,38,28,149,124,38,648
21111511,38,38,28,150,114,38,649
21116427,38,38,28,143,106,37,655
21121343,38,38,28,140,97,36,656
21126259,38,38,28,144,89,35,664
21131177,38,37,29,155,82,35,673
21136094,38,37,28,177,77,34,680
21141010,38,37,28,169,76,34,688
21145926,38,37,28,194,70,34,694
21150841,38,37,28,196,69,33,701
21155757,38,37,28,190,67,33,707
21160673,38,38,28,213,76,33,714
21165589,38,37,28,224,74,33,721
21170504,38,37,28,219,75,33,727
21175420,38,37,28,208,71,32,734
21180336,38,37,29,198,68,32,738
21185252,38,36,28,188,80,32,745
21190196,38,36,28,208,83,33,749
21195140,37,36,28,201,86,33,753
21200085,38,36,28,207,81,33,756
21205029,38,36,28,208,75,32,759
21209973,38,36,29,209,70,32,760
21214917,38,36,28,218,65,32,751
21219861,38,36,28,270,62,32,739
21224805,38,36,28,362,59,31,749
21229749,38,36,29,425,60,32,749
21234693,39,36,28,418,57,32,749
21239638,38,36,28,454,53,32,749
21244582,38,36,28,452,50,32,748
21249528,38,36,28,418,47,31,746
21254472,38,36,28,394,44,31,743
21259416,37,36,28,367,42,31,741
21264185,38,36,28,349,40,30,737
21269131,38,36,28,320,38,30,734
21274076,38,36,28,294,36,30,729
21279020,38,36,28,270,34,30,725
21283967,38,36,28,249,33,30,720
21288912,38,36,28,232,32,30,714
21293856,38,36,28,228,31,30,708
21298802,38,36,28,223,30,30,701
21303749,38,36,28,204,29,29,693
21308694,38,36,28,187,28,30,686
21313639,38,36,28,173,28,29,679
21318586,38,36,28,162,26,29,672
21323533,38,36,28,152,26,29,665
21328478,38,36,28,145,26,29,658
21333424,38,36,28,135,25,29,651
21338327,38,36,28,130,25,30,643
21343266,38,36,28,123,24,29,636
21348204,38,36,28,115,24,30,627
21353143,39,36,28,109,24,30,619
21358082,38,36,28,102,23,30,610
21363022,38,36,29,96,23,30,603
21367961,38,36,28,95,23,30,595
21372903,38,36,29,97,22,30,585
21377846,39,36,29,92,22,32,574
21382789,38,36,29,88,22,32,561
21387731,38,36,29,83,22,32,546
21392674,38,36,29,80,22,33,528
21397617,38,36,29,76,22,36,510
21402560,38,36,29,73,22,36,492
21407503,38,36,29,71,21,38,471
21412446,39,36,29,68,21,38,448
21417240,38,36,29,66,22,37,431
21422100,38,36,29,66,22,38,412
21426960,38,36,29,65,21,37,392
21431820,38,36,29,63,21,36,370
21436680,38,36,29,61,21,36,347
21441541,38,36,29,61,22,36,328
21446401,37,36,29,60,22,36,309
21451261,38,36,29,59,22,36,292
21456121,38,36,29,59,21,36,279
21460981,38,36,29,59,21,35,269
21465842,41,36,29,58,21,35,263
21470702,45,36,29,58,21,33,258
21475562,51,36,29,57,21,34,256
21480422,51,36,29,57,21,34,256
21485282,55,36,29,56,21,35,256
21490146,54,37,29,56,25,34,259
21495151,53,36,29,55,25,34,262
21500079,56,36,29,54,24,33,266
21504999,58,37,30,53,24,33,270
21509933,55,36,29,53,25,32,274
21514871,55,35,29,52,25,34,278
21519840,54,36,29,52,29,34,282
21524781,58,37,29,52,28,33,286
21529745,59,37,29,53,29,33,290
21534695,62,37,29,54,29,33,293
21539629,60,37,29,54,28,33,294
21544569,61,37,29,53,28,33,295
21549505,58,37,29,54,27,32,295
21554433,56,37,29,54,27,32,294
21559367,55,37,29,53,26,31,294
21564303,53,37,29,53,26,31,295
21569256,51,37,29,53,26,31,296
21574127,50,37,29,52,29,31,299
21579139,49,37,29,52,31,31,302
21584170,50,37,29,54,35,31,306
21589183,48,37,29,54,33,31,310
21594190,48,37,29,53,32,30,315
21599193,46,37,29,53,31,31,319
21604195,46,37,28,53,30,30,322
21609198,45,37,28,53,29,31,326
21614200,44,37,29,53,28,30,329
21619203,43,37,29,52,28,30,331
21624214,43,37,29,53,27,30,334
21629216,43,36,28,53,26,30,335
21634218,42,37,29,54,26,30,337
21639237,42,37,28,54,25,30,337
21644241,41,36,28,53,25,30,339
21649243,41,36,28,52,25,30,341
21654199,41,37,28,53,24,30,343
21659228,40,36,28,52,24,30,345
21664265,40,36,28,52,26,30,345
21669291,40,36,28,52,28,30,345
21674319,40,36,29,51,27,30,344
21679348,40,36,28,50,27,31,342
21684376,39,36,28,50,26,31,340
21689402,39,36,28,53,25,31,338
21694432,39,36,28,55,25,31,335
21699461,39,36,28,60,24,31,333
21704489,39,36,29,65,24,31,332
21709517,38,36,28,64,24,30,331
21714546,39,36,28,65,24,31,330
21719575,39,36,28,69,23,31,329
21724603,38,36,28,67,23,30,329
21729632,38,36,28,67,23,30,329
21734574,38,36,29,65,23,30,329
21739603,38,36,28,63,22,30,328
21744632,38,36,28,65,22,30,328
21749661,38,36,28,67,22,30,326
21754697,38,36,29,70,22,30,324
21759726,38,36,28,75,22,30,324
21764756,38,36,28,86,22,30,326
21769803,38,36,28,84,23,30,321
21774832,38,36,28,92,22,30,329
21779880,38,40,28,106,22,30,337
21784925,38,42,28,101,21,30,340
21789954,38,47,28,96,22,30,336
21794983,38,49,28,90,21,30,327
21800012,38,47,28,86,21,30,329
21805041,38,48,28,82,21,30,376
21810071,38,47,28,78,21,30,392
21815013,41,48,28,75,21,30,385
21820024,40,47,29,72,21,30,372
21825036,40,45,28,69,21,31,364
21830047,40,44,28,67,21,31,354
21835059,40,44,28,65,21,30,344
21840071,40,44,29,64,21,31,329
21845082,40,43,28,63,21,31,314
21850094,41,42,28,61,20,31,301
21855106,43,42,28,60,21,31,284
21860117,45,42,28,60,21,30,269
21865129,50,45,28,58,21,30,257
21870140,49,51,28,57,21,31,245
21875152,56,60,29,56,21,30,241
21880164,61,80,28,55,23,30,229
21885175,62,77,28,54,23,30,219
21890187,61,74,28,53,23,30,207
21895094,62,74,28,53,23,31,196
21900106,61,70,28,54,24,34,186
21905117,61,67,28,60,28,39,177
21910128,59,75,29,62,32,38,168
21915139,60,83,28,66,33,42,164
21920150,59,90,29,70,34,45,171
21925162,58,100,29,68,36,47,168
21930173,58,122,28,65,38,46,165
21935184,56,122,28,63,39,46,167
21940195,56,116,29,62,38,44,173
21945206,53,108,29,62,40,47,188
21950218,54,100,28,63,47,45,188
21955229,60,96,28,63,48,44,194
21960240,58,92,28,63,73,42,186
21965253,56,99,28,62,88,44,182
21970264,55,115,28,63,134,45,180
21975187,54,116,28,65,165,46,184
21980191,60,120,28,66,186,49,197
21985195,62,124,29,71,210,49,207
21990198,61,134,29,69,200,48,224
21995201,64,130,28,70,205,46,214
22000206,63,138,28,67,196,45,203
22010879,70,192,29,63,179,42,181
22015791,78,186,29,62,197,42,172
22020728,80,184,28,60,192,43,165
22025666,79,170,28,59,212,42,158
22030604,75,157,28,57,210,42,151
22035543,71,145,28,56,221,44,145
22040482,68,136,28,56,248,54,140
22045421,65,126,28,55,250,58,137
22050388,62,117,29,54,251,65,132
22055188,60,108,28,53,244,64,138
22060091,57,115,28,53,234,61,140
22064995,61,120,28,52,229,58,139
22069899,61,123,28,51,223,57,136
22074802,68,133,28,52,202,54,131
22079706,65,164,28,54,186,52,126
22084609,62,189,28,53,176,50,122
22089513,63,182,28,53,168,49,118
22094418,61,167,28,52,199,50,114
22099322,58,154,28,51,198,53,111
22104226,57,142,28,51,193,52,108
22109130,54,131,28,51,211,51,108
22114035,53,121,28,50,229,51,110
22118939,52,112,28,50,235,54,114
22123843,50,104,28,49,221,55,118
22128843,48,97,28,49,209,53,121
22133828,47,91,28,49,196,52,125
22138811,46,85,28,51,195,51,129
22143821,45,80,28,54,188,51,134
22148822,45,76,28,59,183,49,138
22153806,43,75,28,61,173,49,141
22158789,44,71,28,60,164,48,144
22163772,43,67,28,58,176,52,148
22168756,42,64,28,57,161,49,152
22173740,42,61,28,56,149,47,155
22178724,41,59,28,57,140,45,159
22183708,41,57,28,62,133,44,162
22188693,41,55,28,61,137,43,164
22193677,40,54,28,59,152,45,165
22198668,40,52,28,58,154,44,165
22203634,40,51,28,59,156,42,164
22208700,40,49,28,58,143,41,162
22213766,39,49,28,56,130,40,159
22218831,39,48,28,55,121,39,156
22223900,39,46,28,53,123,38,154
22228966,39,45,28,53,117,37,149
22234032,39,45,28,52,108,37,145
22239098,39,44,28,51,105,36,142
22244167,38,43,28,51,103,35,139
22249234,38,42,28,52,97,35,137
22254299,38,42,28,52,100,34,135
22259368,38,41,28,56,105,34,134
22264436,38,41,28,64,104,33,133
22269503,38,40,28,71,105,34,132
22274570,38,40,28,70,103,33,132
22279638,38,39,28,69,124,34,132
22284661,38,39,28,75,119,36,132
22289728,38,38,28,78,130,35,132
22294797,38,38,28,83,123,36,132
22299865,38,38,29,85,114,35,133
22304933,38,38,28,94,105,34,134
22310002,38,38,28,97,97,34,135
22315070,38,37,28,104,89,34,136
22320139,38,37,28,107,82,33,137
22325208,38,37,28,102,80,33,137
22330277,38,37,28,103,85,33,138
22335346,38,37,28,99,87,33,138
22340415,38,37,28,98,81,33,139
22345483,38,37,28,113,75,32,140
22350557,38,37,28,118,70,32,141
22355627,38,37,28,114,70,32,143
22360696,38,37,28,121,67,32,144
22365659,38,37,28,142,64,32,145
22370743,38,36,28,147,64,32,146
22375812,38,37,28,152,61,32,147
22380909,38,36,28,153,57,32,148
22385978,38,36,28,156,53,33,149
22391047,38,37,28,174,50,32,149
22396118,37,36,28,175,47,32,151
22401187,38,36,28,193,44,31,153
22406256,38,36,28,183,42,31,154
22411343,38,36,28,207,39,31,156
22416440,38,36,28,203,37,31,158
22421511,38,36,28,198,36,32,162
22426579,38,36,28,183,35,31,163
22431648,38,36,27,176,34,32,166
22436716,38,36,28,168,32,33,169
22441738,38,36,28,156,31,33,174
22446807,38,36,28,145,30,33,177
22451875,38,36,28,134,29,33,182
22456944,38,36,29,128,28,32,186
22462013,38,36,28,127,28,32,191
22467082,38,36,29,126,27,31,195
22472151,38,36,28,118,26,31,200
22477220,38,36,28,113,25,31,204
22482289,38,36,28,108,25,33,207
22487357,38,36,28,104,25,34,209
22492426,38,36,28,98,24,33,210
22497495,38,36,28,92,24,33,210
22502563,38,36,28,87,24,34,208
22507632,38,36,28,84,24,35,205
22512701,38,36,28,80,23,35,202
22517769,38,36,29,76,23,34,199
22522734,38,36,28,75,23,35,194
22527802,38,36,28,73,23,35,188
22532871,38,36,28,70,22,37,181
22537939,38,36,28,68,23,38,174
22543007,38,36,28,68,22,37,165
22548076,38,36,28,66,22,37,156
22553146,38,36,28,66,22,36,149
22558214,38,36,29,66,22,35,143
22563282,38,36,29,66,22,35,137
22568352,38,37,29,67,22,36,132
22573422,38,37,29,67,22,36,127
22578489,38,36,28,67,22,36,123
22583559,38,37,29,67,21,35,119
22588630,38,37,29,67,22,35,116
22593699,38,37,29,67,22,34,115
22598767,38,36,29,67,21,34,115
22603752,38,37,29,65,22,35,116
22608823,38,37,29,63,21,35,118
22613892,38,36,28,62,21,36,122
22618961,38,36,29,60,21,37,126
22624032,47,37,29,59,21,37,132
22629103,52,36,29,58,21,36,137
22634173,51,36,28,56,22,35,144
22639244,49,36,28,55,22,35,151
22644316,49,36,29,54,22,34,158
22649387,48,36,28,54,22,34,165
22654459,47,36,28,53,22,34,172
22659533,46,36,28,52,21,33,178
22664608,45,36,28,54,21,33,183
22669683,44,37,29,54,22,33,186
22674756,44,37,28,54,21,32,187
22679831,43,36,28,56,22,32,186
22684719,43,37,28,56,21,32,186
22689710,42,36,28,56,21,32,186
22694701,42,36,28,56,21,31,187
22699692,42,36,28,55,22,31,189
22704682,41,35,28,54,22,31,192
22709674,41,36,29,53,22,31,192
22714665,41,36,28,52,22,31,193
22719656,41,36,28,52,22,31,195
22724647,41,37,28,51,22,30,195
22729638,40,36,28,52,22,30,192
22734629,41,37,28,52,21,31,186
22739620,40,36,28,51,24,30,183
22744611,40,36,28,51,24,31,182
22749601,40,37,28,50,23,31,178
22754593,39,37,28,50,26,31,175
22759584,39,36,29,50,26,31,176
22767011,39,37,28,50,25,31,179
22771871,39,37,28,49,25,31,177
22776705,39,37,28,49,25,31,175
22781549,39,37,28,49,24,32,174
22786392,38,36,28,48,24,31,173
22791236,38,36,29,48,24,31,173
22796086,38,36,28,49,24,31,174
22800930,38,36,28,49,23,31,175
22805773,38,36,28,48,22,31,176
22810617,38,37,29,49,22,31,178
22815463,38,36,28,48,22,30,181
22820322,38,36,28,48,22,29,183
22825166,38,36,28,48,22,31,186
22830020,38,36,29,48,22,30,190
22834872,38,36,28,48,22,30,194
22839726,38,36,28,48,21,30,197
22844451,38,37,28,48,21,30,200
22849376,38,36,28,48,22,30,202
22854300,38,36,28,48,21,30,204
22859252,38,36,28,48,21,30,206
22864177,38,36,29,48,21,30,208
22869119,38,36,28,48,21,30,210
22874044,39,37,27,47,21,30,212
22879060,38,36,28,47,22,31,214
22883984,38,36,28,47,21,30,215
22888909,38,36,28,47,21,30,216
22893834,38,36,29,47,21,30,217
22898758,38,36,28,47,21,30,217
22903683,38,36,28,47,21,30,218
22908610,38,36,28,47,21,30,218
22913534,38,36,28,47,21,30,220
22918459,38,39,29,48,21,30,234
22923266,38,39,28,48,21,30,226
22928185,38,41,28,47,21,30,242
22933101,38,45,28,47,21,30,248
22938018,38,45,28,48,21,30,249
22942936,38,45,29,47,21,30,240
22947856,38,46,29,47,21,30,239
22952772,38,47,28,48,21,30,253
22957707,38,47,28,48,21,30,253
22962627,38,46,28,49,21,31,246
22967546,38,58,28,48,21,30,238
22972463,38,68,28,48,21,31,250
22977381,38,73,29,48,21,30,241
22982301,39,76,28,48,21,31,236
22987220,39,77,29,47,21,31,240
22992137,49,78,28,47,21,30,241
22997056,50,75,28,47,22,31,229
23001850,48,72,29,47,21,32,228
23006769,47,68,28,49,21,32,216
23011686,46,68,28,49,22,32,210
23016605,45,69,28,49,21,32,205
23021524,47,69,28,50,21,31,200
23026443,53,69,28,49,21,31,194
23031362,56,74,28,50,21,31,188
23036281,58,81,28,50,22,31,182
23041199,58,84,28,50,28,31,173
23046118,58,84,28,52,32,32,166
23051050,56,83,28,52,32,32,159
23055969,60,96,28,52,31,32,152
23060888,59,93,28,54,35,34,146
23065806,57,101,29,54,40,35,140
23070726,60,112,28,54,62,34,137
23075645,59,117,29,55,65,36,143
23080436,56,120,28,56,63,36,145
23085351,56,117,29,56,73,36,144
23090280,59,130,29,54,98,34,141
23095196,60,129,28,54,112,35,140
23100111,58,126,29,54,104,35,142
23105027,58,123,28,53,121,35,142
23109942,68,124,28,54,121,35,137
23114858,81,122,28,57,112,34,132
23119774,78,130,28,57,117,34,127
23124689,84,135,28,61,131,34,122
23129605,80,136,28,61,139,37,121
23134520,75,130,28,61,166,38,121
23139436,75,140,28,61,184,42,121
23144351,72,145,28,63,170,42,123
23149267,68,153,29,65,155,40,129
23154084,65,154,28,68,144,40,127
23159000,66,146,28,66,134,39,141
23163915,65,142,28,64,130,39,154
23168831,63,140,28,62,120,38,167
23173746,74,152,28,62,112,38,180
23178662,80,157,28,63,104,36,193
23183577,80,163,29,63,95,36,208
23188494,78,182,28,64,88,36,224
23193411,76,225,28,62,83,35,237
23198327,73,216,28,61,77,34,247
23203243,69,204,28,59,74,34,256
23208158,70,223,28,58,69,34,262
23213074,71,231,28,57,70,33,265
23217990,68,222,28,60,66,33,264
23222906,68,205,28,58,61,33,262
23227800,68,199,28,63,57,31,257
23232747,65,187,28,62,53,32,249
23237693,71,178,28,61,50,32,238
23242641,68,165,29,68,47,31,228
23247588,65,151,28,73,46,31,217
23252534,64,139,28,73,46,31,208
23257481,62,130,28,74,44,31,199
23262430,61,120,29,73,42,31,189
23267377,66,117,28,72,40,31,179
23272323,63,127,29,71,39,31,172
23277272,64,142,28,69,42,31,164
23287942,62,138,28,64,57,32,147
23292778,60,134,28,63,69,32,142
23297658,57,127,28,67,69,32,137
23302539,56,123,28,72,66,32,135
23307421,54,114,29,79,92,32,133
23312090,55,115,28,81,100,34,133
23316895,62,124,28,86,133,34,134
23321700,67,134,28,97,137,34,133
23326512,65,132,28,99,126,33,131
23331361,62,134,28,103,117,33,128
23336210,60,126,28,108,110,33,125
23341059,57,117,29,105,103,32,120
23345909,56,109,28,99,96,32,115
23350758,54,102,28,96,90,32,110
23355608,52,95,28,92,88,32,107
23360457,51,89,28,88,81,31,104
23365307,49,84,28,84,76,31,102
23370157,48,79,28,80,70,31,99
23375007,47,75,29,76,65,30,97
23379858,46,71,28,74,61,30,94
23384830,45,67,28,77,56,30,93
23389746,45,64,28,81,53,30,90
23394655,44,63,28,86,50,30,89
23399563,43,68,28,90,47,30,87
23404472,43,75,28,89,45,30,85
23409380,44,72,29,88,51,30,84
23414288,44,68,28,91,53,31,83
23419196,42,65,28,90,50,30,81
23424105,42,62,28,89,49,30,81
23429013,42,59,28,89,46,30,83
23433922,42,57,29,87,44,30,84
23438830,41,55,29,85,42,30,85
23443738,41,53,29,92,40,30,86
23448647,41,51,28,94,40,30,88
23453556,40,49,29,96,40,30,90
23458465,40,48,28,94,37,30,92
23463375,40,47,29,90,36,30,94
23468130,40,47,28,86,34,30,96
23473121,39,45,28,86,33,30,99
23478112,39,44,29,84,32,30,102
23483104,39,44,28,97,32,30,106
23488095,39,43,28,94,30,30,110
23493085,39,42,28,97,30,30,116
23498077,39,44,28,97,29,30,121
23503070,39,50,28,108,28,30,127
23508061,39,60,28,115,27,30,134
23513052,38,58,28,130,27,30,141
23518045,39,55,28,127,26,30,149
23523038,38,53,28,153,25,30,157
23528029,38,52,28,171,25,30,165
23533021,38,50,29,183,25,30,174
23538014,38,48,28,183,25,30,184
23543007,39,47,28,198,25,30,197
23547860,38,46,28,189,24,30,209
23552846,38,45,29,191,24,31,221
23557831,38,44,28,190,24,31,234
23562817,38,43,29,187,23,32,248
23567801,38,42,28,172,23,33,261
23572786,38,42,28,161,23,34,276
23577772,38,41,28,149,22,34,290
23582758,38,41,28,138,22,34,305
23587743,38,40,29,129,22,35,321
23592728,38,39,28,120,22,34,337
23597714,38,40,28,113,22,34,353
23602699,38,40,28,106,22,34,370
23607686,38,40,28,100,22,33,386
23612672,38,39,28,96,21,33,402
23617659,38,39,28,92,20,32,417
23622571,38,39,28,89,22,32,431
23627557,38,40,28,97,21,33,444
23632542,38,41,28,107,21,32,456
23637528,38,41,28,111,21,33,466
23642514,38,40,28,106,21,33,475
23647499,38,40,28,100,21,34,482
23652485,38,40,28,98,22,34,486
23657471,38,40,28,95,21,33,487
23662456,38,40,28,92,21,33,489
23667451,38,42,28,93,21,33,486
23672436,38,41,28,89,21,32,482
23677422,38,41,29,85,21,33,478
23682426,39,44,29,82,21,33,474
23687423,41,49,28,79,21,33,467
23692440,47,52,29,79,21,33,459
23697432,47,50,28,78,21,34,449
23702351,46,49,29,75,21,33,437
23707334,45,47,29,72,21,33,424
23712336,45,46,29,70,21,33,408
23717320,44,45,28,70,22,33,392
23722317,43,44,28,70,21,32,373
23727300,42,43,29,68,21,32,354
23732283,42,42,29,65,21,32,334
23737266,42,42,28,64,21,33,313
23742250,41,41,28,62,21,34,295
23747233,42,41,29,61,21,34,279
23752217,41,40,29,61,21,35,264
23757200,40,40,29,62,21,34,249
23762184,40,40,28,64,21,34,238
23767166,40,39,29,62,21,34,229
23772150,40,39,29,61,21,34,224
23777133,40,38,28,60,21,35,219
23782027,40,38,29,58,21,35,216
23787010,39,38,29,57,21,34,215
23791999,40,38,29,57,21,34,215
23796983,39,38,29,57,21,37,216
23801968,39,38,28,55,23,37,216
23806951,39,37,29,54,24,37,218
23811935,39,37,28,53,26,36,220
23816919,39,37,29,54,26,36,222
23821905,39,37,29,54,26,35,225
23826888,39,37,29,54,30,35,228
23831871,38,37,28,54,29,34,231
23836856,38,37,29,54,30,34,234
23841842,39,37,29,53,29,33,237
23846825,38,37,29,53,28,33,240
23851809,39,37,28,52,31,34,243
23856795,38,37,29,52,32,33,244
23861709,38,37,28,52,37,34,245
23866723,38,37,28,50,36,33,245
23871737,38,37,28,50,34,33,245
23876753,38,37,28,49,33,33,246
23881769,38,36,28,49,31,33,246
23886783,38,37,28,50,31,33,249
23891799,38,37,28,49,30,32,252
23896815,38,36,28,51,29,32,254
23901832,38,36,28,53,28,32,256
23906847,38,36,28,53,27,32,256
23911863,38,37,28,56,26,32,257
23916880,38,37,28,57,26,32,257
23921896,38,36,28,56,25,33,256
23926913,37,36,28,55,25,32,255
23931934,38,36,28,54,25,31,252
23936954,38,36,29,54,26,31,249
23941773,38,36,29,53,26,31,247
23946707,38,36,28,52,26,31,244
23951642,38,36,28,52,25,31,242
23956577,38,36,28,51,25,31,241
23961513,38,36,28,51,24,30,241
23966448,39,37,28,50,24,30,239
23971383,38,36,29,50,24,30,239
23976318,38,36,28,49,23,30,238
23981253,38,36,28,49,23,31,238
23986189,38,36,28,49,23,31,238
23991124,38,36,29,49,22,31,238
23996059,38,36,29,49,22,31,239
24000994,38,36,28,49,22,31,240
24005929,38,36,28,49,22,31,241
24010865,38,36,28,48,22,31,241
24015800,38,36,28,49,22,31,244
24020818,38,36,28,50,22,31,245
24025821,38,36,28,51,21,31,246
24030822,38,36,29,51,21,31,249
24035823,38,36,28,50,21,31,248
24040824,38,36,28,50,22,31,249
24045825,38,36,28,49,21,31,251
24050825,38,36,28,49,21,31,250
24055826,38,36,28,49,21,30,252
24060828,38,40,28,49,21,30,256
24065845,38,41,28,48,21,31,254
24070847,38,44,29,49,21,30,253
24075878,38,44,29,49,21,31,281
24080892,38,43,28,49,22,30,275
24085893,39,44,28,49,21,30,278
24090932,39,43,28,49,21,30,288
24095955,39,46,28,49,21,32,276
24100888,39,48,29,50,21,31,273
24105992,39,50,29,49,22,33,274
24111075,39,50,28,49,21,32,270
24116178,39,48,28,49,21,32,268
24121262,39,49,28,49,21,32,265
24126364,38,50,28,48,21,32,262
24131461,39,51,28,49,21,32,258
24136551,38,59,28,49,21,32,254
24141647,38,68,28,49,21,31,249
24146741,38,70,28,49,21,31,244
24151860,41,76,28,48,21,31,238
24156953,40,73,28,48,21,31,234
24162037,40,70,28,48,21,31,228
24167121,40,66,28,48,21,31,222
24172204,41,64,28,48,22,30,216
24177288,41,62,28,48,22,31,208
24182310,42,61,28,47,22,30,200
24187385,42,63,28,48,22,30,192
24192460,42,63,28,47,22,30,186
24197536,42,67,28,48,31,30,180
24202615,43,77,28,48,43,31,174
24207690,42,75,28,46,45,31,168
24212765,42,75,28,47,53,31,161
24217842,42,77,28,47,53,30,157
24222933,41,80,28,48,70,30,155
24228008,42,81,29,47,85,31,155
24233083,43,83,28,48,85,31,159
24238162,43,87,28,50,103,32,162
24243240,43,86,28,54,110,32,165
24248316,43,84,28,53,113,33,173
24253393,42,79,28,54,110,33,170
24258472,42,78,28,56,114,33,169
24263423,41,85,28,55,123,33,175
24268498,42,91,28,55,116,33,194
24273576,41,87,28,54,115,34,192
24278654,41,92,28,54,116,35,182
24283732,41,88,28,53,120,37,173
24288809,48,95,28,53,130,40,165
24293887,52,96,28,52,125,44,157
24298965,51,91,28,50,141,43,150
24304043,50,89,28,52,144,45,144
24309121,49,85,28,51,143,44,138
24314199,48,84,28,56,138,42,133
24319277,51,81,28,58,127,41,128
24324355,50,93,28,58,136,40,123
24329439,51,91,28,60,138,40,120
24334517,49,85,28,60,157,39,116
24339594,48,92,28,63,158,38,112
24344668,58,96,28,74,146,38,109
24349743,61,113,28,77,134,37,106
24354818,73,125,28,76,128,36,103
24359912,78,126,28,74,148,36,102
24364987,81,118,29,72,167,39,100
24370062,77,111,28,69,192,38,98
24375136,73,102,28,67,181,37,96
24380211,69,95,28,65,202,40,94
24385286,66,89,28,63,213,40,92
24390362,62,83,28,62,237,44,90
24395437,69,103,28,61,215,44,88
24400522,73,125,28,61,197,43,86
24405597,83,130,28,59,180,42,84
24410672,82,146,28,68,167,41,83
24415747,84,138,28,85,154,40,82
24420722,85,142,28,98,141,39,81
24425797,87,140,28,112,152,40,80
24430871,82,148,28,109,192,48,79
24435946,77,153,28,105,222,48,78
24441021,73,153,28,102,209,50,77
24446095,70,145,28,98,218,53,76
24451168,71,146,28,96,226,57,76
24456242,70,138,28,91,278,64,75
24461318,66,132,28,86,280,73,74
24466393,69,146,28,82,259,70,74
24471467,79,174,28,78,237,66,73
24476542,96,203,28,77,220,63,73
24481616,95,189,28,84,208,61,72
24486692,90,189,28,94,196,60,72
24491767,96,184,28,92,181,56,71
24496819,93,189,28,87,167,54,78
24501925,94,184,28,82,221,57,90
24507030,88,179,28,79,235,60,88
24512135,82,164,28,84,274,60,87
24517241,77,150,28,85,276,63,85
24522346,73,138,28,81,252,60,84
24527453,69,128,28,77,236,57,82
24532558,69,126,28,73,217,55,81
24537663,69,130,28,71,197,52,80
24542769,67,120,28,69,180,50,79
24547877,64,111,28,66,166,48,78
24552982,62,103,28,64,156,46,77
24558088,59,95,28,62,147,44,77
24563194,57,89,28,60,133,43,78
24574032,53,78,28,57,109,39,112
24579028,51,73,28,60,100,38,110
24583848,49,70,28,59,92,37,106
24588809,48,66,28,58,84,37,104
24593770,48,63,28,59,78,36,101
24598732,46,59,28,57,72,36,98
24603695,45,58,28,56,66,35,96
24608657,45,55,28,55,61,34,94
24613625,44,53,28,54,59,34,92
24618631,43,52,28,53,57,34,90
24623637,42,50,29,52,54,33,88
24628643,42,48,28,52,52,33,86
24633649,42,47,28,51,49,33,85
24638655,41,46,28,50,46,32,83
24643661,41,45,28,50,44,32,82
24648667,41,44,28,57,42,32,81
24653673,40,43,28,59,41,32,80
24658680,40,42,28,64,39,32,79
24663282,40,42,28,63,38,32,78
24667859,40,41,29,61,38,31,77
24672460,40,41,28,59,37,31,76
24677062,39,41,28,58,38,32,75
24681663,39,44,28,60,37,31,75
24686265,46,49,28,63,35,32,74
24690866,53,49,28,63,34,31,74
24695467,52,50,29,61,33,31,74
24700069,50,49,28,65,31,31,73
24704671,49,48,28,70,31,31,72
24709272,48,47,28,70,34,31,72
24713873,47,46,28,68,42,31,72
24718474,46,45,29,66,42,31,72
24723076,45,45,29,64,52,31,71
24727677,45,44,29,62,91,32,70
24732279,44,44,29,63,129,34,69
24736881,44,43,29,67,137,35,68
24741329,44,44,29,65,129,35,66
24746012,50,63,29,63,118,34,66
24750695,73,91,29,61,111,34,66
24755377,93,132,29,60,103,34,68
24760059,111,151,29,59,96,33,71
24764742,105,146,29,58,92,34,73
24769425,99,138,29,57,89,34,75
24774107,93,128,29,56,82,34,76
24778790,87,119,29,55,80,34,77
24783474,82,110,29,54,74,34,79
24788157,78,103,29,55,69,36,79
24792839,74,97,29,57,65,36,78
24797522,71,91,29,56,65,35,78
24802206,67,85,29,65,65,35,76
24806890,66,81,29,67,61,35,75
24811571,71,84,29,66,57,33,74
24816120,77,87,29,65,53,34,74
24820795,81,89,29,62,50,35,73
24825470,80,85,29,61,47,35,73
24830144,76,80,28,60,45,35,72
24834820,72,75,28,58,42,35,70
24839496,69,71,28,59,42,39,69
24844171,66,68,29,58,66,41,68
24848846,63,71,28,57,76,39,68
24853522,68,76,29,56,91,39,68
24858198,86,104,29,55,89,41,68
24862874,88,131,29,54,83,40,68
24867562,103,161,29,53,79,40,67
24872238,112,169,29,52,74,40,67
24876914,116,180,28,56,69,39,67
24881592,130,189,28,68,70,37,67
24886269,122,183,29,96,66,37,67
24890819,114,173,28,92,61,37,67
24895513,106,160,28,88,62,36,66
24900209,102,149,28,84,74,36,65
24904885,117,149,29,87,88,36,66
24909562,124,153,28,105,114,37,66
24914239,120,168,28,122,122,37,65
24918915,127,173,28,124,115,38,65
24923592,143,255,28,121,111,36,69
24928268,150,288,28,114,102,37,73
24932945,179,390,29,110,94,38,74
24937622,206,383,28,110,88,37,73
24942299,223,372,28,107,81,36,72
24946976,218,344,28,102,76,37,71
24951652,204,315,29,96,72,38,70
24956329,188,289,29,91,79,37,70
24960936,173,282,29,87,80,36,70
24965610,160,270,29,91,89,36,69
24970285,149,272,28,99,97,35,69
24974960,136,260,28,102,97,34,69
24979634,128,238,28,98,98,34,69
24984308,123,220,29,92,92,35,69
24988983,122,220,29,88,85,35,68
24993657,114,207,29,84,79,35,68
24998331,109,196,28,80,74,34,69
25003006,103,182,29,76,69,34,77
25007680,96,173,28,73,65,34,77
25012355,93,163,28,70,62,34,76
25017030,88,153,28,68,58,33,78
25021704,83,144,28,66,59,33,80
25026379,79,135,28,65,56,33,87
25031053,75,125,29,65,53,33,102
25035589,72,117,28,65,49,32,106
25040263,68,109,28,64,47,33,119
25044937,65,119,29,63,44,33,121
25049612,62,115,29,60,42,32,122
25054304,61,121,28,59,40,31,120
25058979,58,119,29,57,38,32,123
25063654,57,111,28,56,36,32,119
25068329,55,104,29,55,35,32,116
25073004,53,97,28,54,33,33,114
25077679,52,92,28,54,32,32,111
25082356,50,86,28,53,31,32,115
25087032,49,81,28,52,29,32,112
25091706,48,77,28,51,29,32,108
25096382,47,73,28,51,28,32,105
25101060,46,69,28,50,28,34,103
25105718,45,66,28,50,27,34,100
25110423,44,63,29,50,26,34,98
25115130,44,60,28,52,26,34,96
25119839,43,58,28,51,25,35,94
25124545,43,56,28,51,25,37,93
25129251,42,55,28,52,28,37,93
25133960,42,56,29,51,31,37,92
25138669,41,53,29,51,38,37,92
25143376,41,52,28,52,40,37,92
25148082,41,50,28,51,37,36,91
25152791,40,49,28,51,36,36,89
25157500,40,47,28,51,34,35,88
25162207,40,49,28,50,38,34,86
25166915,40,54,28,50,50,34,84
25171623,40,63,28,50,63,34,81
25176332,40,60,28,49,74,33,79
25181040,39,58,28,50,74,33,78
25185527,40,66,29,50,68,33,77
25190155,48,75,28,50,66,32,76
25194782,54,88,29,51,66,32,76
25199408,63,84,28,50,70,32,75
25204036,62,84,29,50,85,32,75
25208664,59,96,28,50,85,32,74
25213291,62,119,28,49,95,32,73
25217919,68,117,28,53,104,32,73
25222547,65,109,28,56,102,32,73
25227189,62,102,29,59,98,32,72
25231816,61,96,29,59,93,32,72
25236444,62,93,29,60,88,31,71
25241072,63,89,28,58,92,31,71
25245699,64,84,29,57,100,31,71
25250327,69,81,28,56,95,33,70
25254955,75,84,29,55,98,33,70
25259699,78,84,29,54,94,33,69
25264402,86,117,29,53,117,33,69
25269116,89,146,28,53,118,32,68
25273829,98,181,29,52,108,32,69
25278543,103,170,28,52,100,32,69
25283257,98,168,29,54,102,32,68
25287970,107,175,29,53,129,34,68
25292684,119,177,29,54,166,38,68
25297398,121,182,29,54,201,41,66
25302112,118,169,29,53,198,45,66
25306825,113,162,28,53,189,42,66
25311562,107,156,29,52,187,43,65
25316276,101,162,29,52,183,43,65
25321000,105,152,29,51,184,44,65
25325729,125,169,28,50,182,44,65
25330427,147,185,28,50,166,42,65
25335237,143,243,28,50,154,41,65
25340046,160,276,28,50,148,40,65
25344840,176,333,28,51,146,40,65
25349641,203,332,28,51,135,38,64
25354438,197,302,29,51,137,38,64
25359259,190,282,28,51,166,38,64
25364079,189,273,28,50,179,42,67
25368885,202,269,28,50,193,43,68
25373694,208,261,28,49,181,43,66
25378492,192,258,28,49,205,43,65
25383308,191,247,28,49,217,49,67
25388112,189,232,29,49,201,51,66
25392921,212,278,28,48,186,49,66
25397724,250,330,29,48,181,48,66
25402533,263,369,28,48,172,47,66
25407320,254,411,28,51,164,46,66
25412107,258,454,28,51,152,45,65
25416894,267,434,28,50,138,43,69
25421682,246,434,29,50,126,42,70
25426477,230,420,28,49,121,41,70
25431264,219,398,28,49,127,40,71
25436056,201,364,29,49,124,39,73
25440844,184,337,28,48,119,38,73
25445633,172,311,28,48,110,37,71
25450419,168,290,28,48,103,36,69
25455207,162,273,28,48,97,36,68
25459996,161,258,28,48,90,36,69
25464784,153,262,28,48,88,36,71
25469571,144,269,28,48,99,37,70
25474359,144,249,28,51,101,36,69
25479002,140,245,29,56,100,36,70
25483790,137,228,28,56,112,36,73
25488576,127,219,28,55,125,35,74
25493365,118,209,28,54,140,37,75
25498155,113,210,28,53,141,38,74
25502941,107,201,28,55,142,39,82
25507729,110,195,28,56,137,39,81
25512518,104,198,28,57,125,38,80
25517307,122,195,28,57,115,37,78
25522094,120,191,28,57,117,37,78
25526883,112,188,28,63,115,37,78
25531672,108,182,28,72,108,37,79
25536461,102,176,29,74,110,38,78
25541250,107,173,29,73,114,39,77
25546039,115,161,28,75,131,38,77
25550699,127,156,28,80,123,37,76
25555485,122,147,28,80,130,39,76
25560270,119,147,28,78,131,39,74
25565055,114,148,28,76,126,39,74
25569841,119,149,28,73,116,38,73
25574628,113,143,28,70,109,38,73
25579414,105,138,28,70,106,39,73
25584199,102,142,28,68,98,38,78
25588986,101,152,28,76,95,37,81
25593773,95,144,28,79,97,37,80
25598560,96,135,29,85,93,37,79
25603346,93,130,28,80,94,36,78
25608133,102,130,28,79,90,36,77
25612920,100,139,28,78,85,34,76
25617707,95,149,28,78,79,34,76
25622406,99,142,28,75,78,34,75
25627193,93,137,28,72,73,34,74
25631980,89,141,28,70,69,33,74
25636767,84,136,28,67,91,35,73
25641554,80,127,28,65,116,36,80
25646341,76,119,28,64,122,35,82
25651128,72,111,28,63,113,35,82
25655914,68,107,28,62,103,34,80
25660701,68,115,28,61,95,34,79
25665488,66,134,28,59,88,33,78
25670275,66,125,28,58,81,33,77
25675062,70,121,29,57,76,32,76
25679849,68,130,28,56,70,32,75
25684636,64,138,28,56,76,33,75
25689423,67,145,28,55,79,33,74
25694209,67,136,29,55,76,32,74
25698914,65,137,28,57,72,32,73
25703744,63,164,28,60,72,32,73
25708574,74,195,28,72,77,32,72
25713403,71,183,28,76,73,32,72
25718233,68,169,28,73,69,32,71
25723063,64,158,28,70,65,32,71
25727892,63,148,28,68,60,32,70
25732722,74,140,28,67,57,32,69
25737552,72,150,28,70,54,31,69
25742382,71,154,28,68,52,31,69
25747212,73,163,28,66,53,32,67
25752042,70,163,28,64,50,33,66
25756872,67,151,28,64,48,33,66
25761702,65,140,28,64,52,33,65
25766533,62,131,29,65,62,34,67
25771364,59,121,29,66,78,34,68
25775961,58,122,29,64,74,33,70
25780708,59,129,28,62,70,33,71
25785456,59,137,28,61,65,33,80
25795873,71,157,28,61,56,32,88
25800545,68,156,28,62,52,32,92
25805234,65,154,28,61,50,32,94
25809924,66,156,28,60,52,31,97
25814614,64,161,28,60,50,32,98
25819305,61,162,28,60,49,32,100
25823996,59,161,28,60,46,31,98
25828687,58,152,29,61,43,31,96
25833406,58,147,28,65,41,31,104
25838140,57,137,28,66,39,31,106
25842875,62,140,28,65,37,31,107
25847610,59,153,28,66,36,30,108
25852344,65,158,27,64,34,30,108
25857145,63,155,28,62,33,30,108
25861991,61,156,28,60,32,30,105
25866838,59,174,29,59,31,30,104
25871685,62,198,28,58,30,30,102
25876532,63,201,28,57,29,30,101
25881379,60,185,29,56,28,30,97
25886227,58,174,29,55,27,30,95
25891074,56,170,29,53,28,30,97
25895921,56,171,28,54,37,31,100
25900768,54,175,28,52,45,31,101
25905616,59,190,28,52,52,32,102
25910463,69,188,28,51,50,32,102
25915310,69,178,28,51,47,31,104
25920182,68,177,29,54,44,32,104
25925029,66,168,28,63,42,31,104
25929858,64,169,28,63,40,31,106
25934791,65,175,28,64,38,31,107
25939718,67,161,28,65,37,30,107
25944646,68,149,28,65,35,30,108
25949574,70,166,29,64,37,31,108
25954502,68,193,28,65,43,32,109
25959431,67,198,28,64,47,32,110
25964358,65,194,28,62,48,31,107
25969288,66,183,28,60,50,32,110
25974216,66,178,28,59,47,31,113
25979144,66,171,29,58,44,31,113
25984073,78,171,29,56,42,31,115
25989003,83,165,28,55,39,31,113
25993931,83,169,28,55,38,31,113
25998859,80,185,29,54,36,31,115
26003790,80,182,29,53,34,31,113
26008607,85,197,28,53,33,31,112
26013520,80,185,28,52,32,31,111
26018435,78,172,28,51,31,31,111
26023351,78,163,28,52,29,30,108
26028265,75,161,29,53,29,30,110
26033179,75,156,28,53,28,30,110
26038095,77,154,28,54,28,30,110
26043010,76,148,28,57,27,31,109
26047925,91,141,29,56,26,29,109
26052840,105,167,28,58,26,30,107
26057756,113,179,28,57,25,30,104
26062672,105,167,28,56,25,30,101
26067586,98,158,28,55,24,30,101
26072503,92,152,28,54,25,30,103
26077418,86,150,28,53,24,30,110
26082315,81,139,28,52,30,30,109
26087230,77,131,28,52,33,30,107
26092145,75,131,28,50,42,30,105
26097061,72,126,29,52,42,30,105
26101977,77,125,28,52,39,30,107
26106892,78,136,28,52,37,30,105
26111809,81,162,29,53,35,30,104
26116726,82,198,28,53,34,30,102
26121642,86,196,28,52,33,30,101
26126558,85,190,28,55,32,30,105
26131475,80,178,28,55,30,30,106
26136391,76,164,29,58,29,30,118
26141308,72,157,28,58,29,30,135
26146224,68,152,29,58,28,30,132
26151141,66,156,28,58,27,30,136
26156058,70,159,28,57,26,31,137
26160859,69,150,28,55,26,30,138
26165805,77,147,28,56,25,30,136
26170750,74,154,28,57,25,30,133
26175696,74,161,28,59,24,30,131
26180641,71,162,29,58,24,30,130
26185599,68,178,28,57,23,29,128
26190545,66,180,28,56,23,30,126
26195490,62,165,28,55,23,30,125
26200435,60,152,29,54,23,30,122
26205380,58,156,28,53,23,30,121
26210326,56,146,28,53,22,30,125
26215272,54,162,28,52,22,30,126
26220217,55,152,28,52,22,30,128
26225162,56,150,28,51,21,30,128
26230107,57,145,28,51,22,29,128
26235035,61,146,28,51,22,29,129
26239980,61,156,28,54,22,30,130
26244926,61,145,28,58,22,29,130
26249871,58,137,28,56,21,30,130
26254816,56,142,28,60,21,30,129
26259762,54,152,28,60,22,31,130
26264707,53,144,29,59,21,30,131
26269652,51,135,28,58,21,30,127
26274598,50,134,28,57,21,29,135
26279543,49,127,28,56,21,30,139
26284504,48,126,28,54,21,30,139
26289450,48,121,29,53,21,30,141
26294395,47,115,28,53,21,30,142
26299341,46,107,28,52,21,29,143
26304288,52,101,28,52,21,30,145
26309233,53,115,29,53,21,30,146
26314057,56,126,28,54,21,30,144
26318996,55,118,28,55,20,30,143
26323935,53,114,28,55,21,30,141
26328872,52,108,28,55,21,30,143
26333810,51,103,28,54,21,30,142
26338750,50,100,29,53,21,29,145
26343689,49,112,29,57,21,30,146
26348626,49,117,28,61,21,29,145
26353565,48,122,29,59,21,29,144
26358505,46,137,28,58,21,29,145
26363443,46,135,28,58,21,30,139
26368381,45,134,28,58,21,30,146
26373321,45,134,28,57,21,30,147
26378261,44,132,29,56,21,29,147
26383200,44,125,28,55,21,29,147
26388039,43,138,29,55,21,29,147
26392897,46,156,29,54,21,29,147
26397755,50,155,28,53,21,29,145
26402611,49,145,28,52,21,29,144
26407469,48,134,28,52,21,29,143
26412326,47,124,28,51,21,29,141
26417184,46,119,29,51,21,29,140
26422042,47,113,28,53,21,29,137
26426902,47,116,28,61,21,29,137
26431764,46,133,28,62,21,29,136
26436625,46,155,28,61,20,29,136
26441485,45,148,28,59,21,29,135
26446346,45,148,29,58,21,30,135
26451208,46,146,27,57,21,30,135
26456069,50,150,29,56,21,30,133
26460930,57,158,29,55,21,30,132
26465854,57,155,29,54,21,30,130
26470783,57,170,28,53,21,30,130
26475703,60,196,28,52,21,30,129
26480624,60,187,28,51,21,30,128
26485545,68,174,28,51,21,30,125
26490465,65,167,29,51,21,29,124
26495385,69,163,28,50,21,30,123
26500305,66,153,28,49,21,30,120
26505226,64,142,28,49,21,30,117
26510147,61,146,29,49,21,30,116
26515067,59,150,29,48,21,30,116
26519988,69,157,29,49,21,30,114
26524909,86,158,29,51,21,30,115
26529830,101,175,29,51,21,30,114
26534751,115,168,28,51,21,30,113
26539654,107,157,28,50,21,30,110
26544657,102,144,28,50,21,30,111
26549661,95,147,28,50,21,30,108
26554701,89,153,28,49,21,31,106
26559721,84,146,28,50,21,30,103
26564725,79,142,28,52,21,30,101
26569762,75,148,28,51,21,30,99
26574766,74,150,28,50,21,29,97
26579783,75,157,27,51,21,30,95
26584799,76,176,28,50,21,30,93
26589832,74,179,29,51,21,29,91
26594864,78,184,28,50,21,30,89
26599878,77,173,28,50,21,30,87
