time,EMG1,EMG2,EMG3,EMG4,EMG5,EMG6,EMG7
115268754,155,147,116,204,175,123,151
115302087,154,148,117,199,131,125,150
115335420,153,148,117,197,181,127,149
115368753,157,147,117,199,134,125,149
115402086,155,144,117,197,140,122,154
115435419,157,148,117,203,196,129,156
115468752,155,148,116,206,145,126,158
115502085,155,147,116,205,157,128,162
115535418,154,148,117,209,157,126,158
115568751,155,148,117,199,164,126,157
115602084,155,146,117,204,133,127,157
115635417,154,148,117,196,162,129,158
115668750,153,147,117,202,126,127,159
115702083,156,147,117,200,143,126,159
115735416,156,149,117,201,122,127,155
115768749,156,149,116,202,114,126,155
115802082,155,147,117,199,105,124,150
115835415,155,147,117,197,107,125,148
115868748,154,148,116,192,133,125,151
115902081,157,147,116,202,137,123,152
115935414,157,147,116,204,150,129,153
115968747,155,147,117,198,166,126,151
116002080,154,148,116,195,138,124,151
116035413,155,148,116,197,144,125,147
116068746,155,147,116,197,160,124,146
116102079,155,147,116,195,171,128,141
116135412,156,147,116,241,210,133,149
116168745,155,147,116,215,166,131,173
116202078,154,147,116,388,185,134,191
116235411,155,147,115,375,192,132,200
116268744,155,148,116,409,203,132,205
116302077,155,147,116,344,279,145,196
116335410,156,149,116,261,206,137,193
116368743,156,148,116,234,209,133,188
116402076,155,149,116,209,175,132,184
116435409,157,147,117,202,147,127,185
116468742,156,147,116,194,160,126,187
116502075,155,147,116,200,143,130,192
116535408,156,147,118,195,146,130,189
116568741,155,149,116,205,135,128,193
116602074,155,147,116,197,192,130,194
116635407,156,148,116,191,139,129,198
116668740,155,147,116,188,204,135,196
116702073,156,148,116,200,143,127,192
116735406,155,148,117,194,228,135,193
116768739,155,147,116,193,159,129,191
116802072,159,147,116,194,184,133,186
116835405,156,147,117,210,131,131,180
116868738,155,146,116,215,185,131,179
116902071,157,148,115,208,146,126,175
116935404,155,147,116,196,116,126,170
116968737,157,145,116,203,150,127,170
117002070,155,147,116,208,116,122,167
117035403,156,147,115,210,98,125,166
117068736,154,147,116,198,105,124,165
117102069,155,147,116,208,103,126,161
117135402,156,148,115,199,105,124,157
117168735,155,148,117,192,99,125,156
117202068,155,148,117,190,94,126,155
117235401,155,147,116,194,89,129,154
117268734,156,148,116,205,125,128,153
117302067,155,147,117,198,105,126,152
117335400,153,148,116,192,123,129,149
117368733,155,147,115,198,122,126,149
117402066,155,147,115,198,141,130,151
117435399,156,148,116,193,114,127,150
117468732,154,148,115,188,101,126,149
117502065,155,148,116,192,130,128,147
117535398,155,148,116,199,108,125,145
117568731,155,147,114,196,95,129,147
117602064,157,148,116,216,90,127,146
117635397,157,147,116,201,105,123,144
117668730,154,147,115,194,96,124,150
117702063,155,147,116,193,91,124,152
117735396,156,147,115,197,87,123,151
117768729,154,147,116,192,90,125,153
117802062,155,148,116,201,88,129,156
117835395,155,147,116,209,88,127,151
117868728,159,146,117,203,88,124,149
117902061,153,148,117,192,86,126,147
117935394,155,147,116,211,96,127,151
117968727,151,147,115,201,93,125,148
118002060,155,147,116,206,91,129,148
118035393,156,149,116,197,104,123,146
118068726,156,148,116,202,94,125,143
118102059,155,148,117,199,101,123,170
118135392,155,147,116,199,117,133,188
118168725,155,147,118,209,160,128,199
118202058,154,148,116,201,129,131,205
118235391,155,147,116,201,131,127,210
118268724,156,147,116,199,120,124,212
118302057,156,145,117,211,116,125,211
118335390,154,147,116,198,121,125,214
118368723,152,147,116,198,102,124,214
118402056,155,147,116,202,110,124,216
118435389,156,148,116,201,99,123,200
118468722,155,147,116,198,96,126,180
118502055,156,148,116,205,115,125,169
118535388,155,146,116,209,103,124,162
118568721,156,148,116,199,117,126,159
118602054,157,147,116,200,106,122,150
118635387,155,147,115,198,102,130,151
118668720,156,147,116,199,112,124,151
118702053,155,147,116,196,108,124,150
118735386,154,148,118,195,98,124,150
118768719,152,145,116,207,112,127,152
118802052,155,148,116,197,106,123,149
118835385,155,148,116,196,102,129,146
118868718,156,147,116,188,97,125,173
118902051,156,147,117,198,92,126,191
118935384,154,150,116,192,109,124,199
118968717,157,148,117,192,96,125,206
119002050,154,150,118,200,96,125,210
119035383,155,147,116,207,120,123,213
119068716,155,148,116,200,126,124,214
119102049,155,148,116,205,117,123,214
119135382,155,148,116,204,101,128,215
119168715,155,148,118,195,117,122,214
119202048,154,147,116,202,102,126,215
119235381,156,147,117,195,97,124,215
119268714,152,148,116,190,130,123,218
119302047,155,147,115,191,113,123,215
119335380,156,147,116,197,98,123,217
119368713,155,147,117,193,96,124,216
119402046,155,147,116,194,94,124,216
119435379,154,148,116,190,89,123,216
119468712,155,146,115,188,91,124,216
119502045,155,147,116,189,90,123,216
119535378,154,148,116,189,87,123,216
119568711,155,147,116,193,95,122,216
119602044,157,148,116,193,90,124,216
119635377,153,148,116,192,98,122,217
119668710,158,147,118,189,100,124,216
119702043,155,148,116,191,93,123,216
119735376,156,147,116,199,103,124,215
119768709,155,146,117,195,99,122,216
119802042,155,149,116,191,96,123,216
119835375,157,148,116,188,90,123,216
119868708,155,148,117,195,87,125,216
119902041,155,148,116,188,89,126,216
119935374,155,148,117,194,91,124,215
119968707,156,147,116,189,85,127,216
120002040,156,147,117,199,87,126,215
120035373,156,149,116,193,111,126,215
120068706,156,148,117,201,111,128,215
120102039,154,148,116,191,105,126,216
120135372,154,146,116,193,126,126,215
120168705,152,146,116,190,104,125,216
120202038,155,148,116,189,94,125,216
120235371,156,147,117,192,89,125,216
120268704,155,147,116,191,88,122,215
120302037,154,147,117,188,85,126,216
120335370,154,160,146,189,86,123,216
120368703,156,175,212,190,87,124,216
120402036,161,184,184,192,115,127,217
120435369,159,189,154,187,100,129,216
120468702,162,205,217,186,164,127,217
120502035,157,188,170,185,172,128,216
120535368,157,190,141,186,139,126,215
120568701,160,193,203,198,145,131,216
120602034,157,227,196,194,162,127,216
120635367,159,188,158,188,167,131,215
120668700,159,187,167,189,183,128,215
120702033,166,175,166,190,186,133,216
120735366,174,295,186,186,203,130,216
120768699,164,236,152,185,164,129,217
120802032,161,327,170,185,152,126,216
120835365,157,242,179,194,147,130,215
120868698,163,208,151,191,167,127,216
120902031,162,205,189,187,150,125,216
120935364,158,178,195,197,164,128,216
120968697,160,257,166,192,198,128,215
121002030,157,211,180,187,152,132,216
121035363,163,238,181,188,203,128,216
121068696,165,284,174,185,142,126,216
121102029,182,322,213,190,215,127,216
121135362,171,296,211,188,151,129,216
121168695,178,314,282,192,243,128,216
121202028,178,265,198,198,183,130,216
121235361,168,308,254,192,206,131,216
121268694,171,303,291,189,159,125,215
121302027,170,411,274,186,124,127,215
121335360,166,424,324,186,152,126,215
121368693,172,441,261,185,129,127,216
121402026,202,420,327,181,180,127,216
121435359,281,497,244,184,140,124,215
121468692,260,440,275,185,115,126,215
121502025,254,485,260,184,107,127,217
121535358,225,385,336,183,95,126,208
121568691,215,406,266,186,90,127,211
121602024,199,343,254,185,210,130,211
121635357,241,374,234,187,155,126,213
121668690,222,333,261,194,191,129,214
121702023,200,396,258,210,137,130,215
121735356,186,459,251,201,214,128,210
121768689,214,331,268,209,159,129,214
121802022,191,302,220,196,130,129,206
121835355,192,389,320,192,119,126,210
121868688,176,309,229,186,194,129,202
121902021,194,466,214,199,139,127,189
121935354,175,332,214,193,112,135,200
121968687,212,376,328,188,110,129,194
122002020,183,351,252,187,195,156,185
122035353,176,320,209,210,141,141,178
122068686,168,340,266,200,114,137,171
122102019,163,366,205,192,108,129,172
122135352,158,304,243,202,211,132,163
122168685,167,417,237,200,151,128,181
122202018,164,328,258,199,128,123,170
122235351,159,387,224,212,161,128,171
122268684,177,370,303,201,137,124,166
122302017,164,265,256,195,256,130,173
122335350,165,438,342,198,197,126,170
122368683,169,314,237,196,208,134,184
122402016,163,296,233,192,173,127,175
122435349,200,361,193,192,139,131,188
122468682,179,331,286,193,136,125,187
122502015,218,459,224,188,116,125,196
122535348,185,299,264,187,141,128,202
122568681,202,464,341,184,114,124,197
122602014,179,323,278,184,144,124,204
122635347,214,464,283,185,119,123,207
122668680,194,366,254,184,136,125,211
122702013,223,466,301,185,130,124,212
122735346,218,363,288,184,116,127,212
122768679,254,474,327,184,101,124,214
122802012,220,397,256,184,127,127,215
122835345,193,538,309,185,109,125,216
122868678,200,404,269,186,98,124,216
122902011,182,402,294,186,150,123,215
122935344,267,429,355,186,120,124,216
122968677,213,424,290,185,102,124,215
123002010,228,371,280,184,94,124,215
123035343,252,361,305,186,117,126,216
123068676,280,376,294,184,99,127,216
123102009,239,442,265,184,127,124,216
123135342,200,356,366,184,111,125,214
123168675,192,419,275,185,178,122,216
123202008,188,300,331,190,175,126,216
123235341,230,393,341,186,174,124,215
123268674,192,347,233,184,130,125,216
123302007,184,329,267,185,180,126,215
123335340,170,346,210,186,172,124,215
123368673,189,335,301,190,131,124,216
123402006,180,345,243,188,114,127,216
123435339,177,331,204,187,150,127,216
123468672,179,366,233,189,133,125,216
123502005,182,326,227,188,147,127,215
123535338,166,435,247,189,117,128,215
123568671,184,441,243,185,105,125,211
123602004,201,376,215,185,105,127,214
123635337,194,402,244,184,179,126,215
123668670,195,375,260,185,131,124,213
123702003,214,389,351,185,108,125,214
123735336,192,313,259,184,95,124,216
123768669,228,537,274,184,111,126,215
123802002,197,427,250,185,99,123,215
123835335,222,448,317,184,103,130,215
123868668,196,343,254,186,101,128,216
123902001,197,467,322,185,94,125,216
123935334,186,361,309,184,93,126,215
123968667,179,442,261,186,91,124,216
124002000,168,365,262,184,98,126,215
124035333,194,359,211,187,94,123,218
124068666,200,357,261,184,96,123,213
124101999,185,271,188,185,90,124,216
124135332,224,523,273,184,86,123,216
124168665,194,346,196,185,88,123,212
124201998,276,501,307,184,86,119,216
124235331,224,365,247,185,90,124,215
124268664,201,365,231,184,92,122,215
124301997,208,456,282,185,87,126,218
124335330,190,358,216,187,86,124,216
124368663,188,419,357,186,90,123,218
124401996,196,457,267,186,88,123,216
124435329,214,496,317,185,86,124,215
124468662,226,534,237,185,87,124,217
124501995,214,397,463,185,84,122,216
124535328,216,463,336,184,85,122,216
124568661,198,408,308,185,82,123,215
124601994,234,451,319,184,87,123,215
124635327,210,393,299,185,85,127,216
124668660,198,552,309,185,85,122,215
124701993,203,437,322,185,88,123,216
124735326,197,522,290,185,86,122,216
124768659,242,488,364,185,89,122,212
124801992,215,649,289,196,92,121,215
124835325,230,519,363,189,93,123,216
124868658,223,582,338,189,98,122,216
124901991,220,397,322,187,103,123,216
124935324,203,440,307,185,115,125,216
124968657,214,356,284,185,109,122,217
125001990,250,462,328,184,113,123,216
125035323,205,418,244,185,98,122,216
125068656,212,425,283,184,109,123,216
125101989,234,384,211,191,98,122,215
125135322,203,420,280,187,89,122,216
125168655,214,437,238,187,91,122,216
125201988,214,449,280,187,87,122,215
125235321,188,446,304,189,86,123,216
125268654,173,442,227,187,84,123,216
125301987,195,469,385,187,86,122,218
125335320,182,386,364,185,86,121,217
125368653,168,417,358,185,84,121,217
125401986,185,418,336,185,83,122,216
125435319,169,387,283,185,85,121,215
125468652,171,426,276,185,83,122,215
125501985,173,357,273,185,87,121,216
125535318,173,466,276,186,85,124,216
125568651,180,481,272,187,87,122,213
125601984,175,479,247,185,89,124,214
125635317,217,432,300,185,87,123,214
125668650,191,349,274,185,85,123,216
125701983,183,473,267,186,84,125,216
125735316,175,449,214,186,84,123,216
125768649,169,380,270,187,85,124,216
125801982,184,307,228,184,86,121,217
125835315,173,389,205,185,86,123,216
125868648,166,374,264,187,84,122,217
125901981,172,304,193,185,85,124,213
125935314,162,331,177,189,86,124,213
125968647,161,361,225,187,85,123,216
126001980,159,270,167,189,87,123,216
126035313,164,353,193,192,85,123,215
126068646,159,266,180,193,83,124,216
126101979,173,329,196,190,83,123,216
126135312,164,246,155,189,86,123,215
126168645,176,386,194,188,87,123,218
126201978,165,301,155,187,87,124,216
126235311,161,278,179,197,89,123,216
126268644,160,363,179,190,87,129,214
126301977,157,414,183,189,88,125,216
126335310,173,357,164,190,89,124,215
126368643,164,253,138,188,87,125,216
126401976,170,425,172,200,89,125,216
126435309,166,323,142,192,84,124,210
126468642,166,354,169,194,86,123,213
126501975,161,277,150,192,89,124,214
126535308,173,291,155,198,90,124,214
126568641,166,325,135,195,89,125,215
126601974,160,294,167,194,106,122,216
126635307,158,280,161,195,96,126,216
126668640,157,215,138,194,97,124,216
126701973,158,217,135,198,91,124,218
126735306,156,187,123,191,89,123,216
126768639,161,211,246,191,85,123,216
126801972,160,178,177,189,84,122,214
126835305,182,214,161,186,85,124,216
126868638,179,197,143,189,87,122,216
126901971,166,182,131,188,84,125,216
126935304,159,175,122,187,85,124,215
126968637,158,164,119,186,86,125,216
127001970,158,176,147,186,84,125,215
127035303,157,161,131,189,86,124,215
127068636,173,202,129,186,87,127,216
127101969,165,193,181,185,85,124,216
127135302,164,209,151,184,86,123,216
127168635,162,198,172,187,86,124,216
127201968,159,183,154,192,86,122,216
127235301,183,188,154,189,85,123,193
127268634,169,171,134,186,83,123,182
127301967,175,245,189,192,85,123,171
127335300,164,194,190,191,84,123,161
127368633,161,210,151,187,86,122,164
127401966,158,196,195,186,85,124,185
127435299,157,195,202,185,84,125,197
127468632,157,186,162,187,84,121,203
127501965,161,212,209,187,85,123,209
127535298,158,201,176,185,87,124,211
127568631,157,196,190,188,86,123,213
127601964,173,178,180,190,84,125,215
127635297,164,168,148,186,87,123,215
127668630,161,217,144,187,85,122,215
127701963,158,230,197,186,86,124,215
127735296,157,224,168,188,86,123,215
127768629,159,212,184,187,84,122,217
127801962,157,193,175,189,85,128,216
127835295,156,190,149,194,84,123,216
127868628,156,190,173,192,84,122,216
127901961,175,215,145,188,84,121,219
127935294,166,190,169,189,83,123,216
127968627,160,194,196,191,86,123,216
128001960,159,187,159,187,85,123,216
128035293,157,208,152,187,84,121,216
128068626,156,218,184,186,86,122,218
128101959,156,186,147,187,86,124,219
128135292,157,195,191,188,86,125,215
128168625,157,170,161,187,87,124,215
128201958,161,210,141,186,86,123,214
128235291,157,182,131,186,85,123,216
128268624,165,222,208,189,86,122,216
128301957,161,192,159,188,85,123,216
128335290,158,187,169,187,83,121,215
128368623,160,177,170,214,86,123,215
128401956,158,186,160,199,84,122,216
128435289,156,193,178,195,83,121,216
128468622,158,184,151,192,86,124,217
128501955,158,211,168,191,85,123,215
128535288,187,233,180,188,84,122,215
128568621,171,189,148,186,84,123,213
128601954,186,249,225,185,86,122,216
128635287,172,195,168,187,85,122,217
128668620,164,279,223,185,85,123,215
128701953,169,213,197,185,85,122,215
128735286,163,220,162,188,87,122,216
128768619,164,220,140,193,82,126,216
128801952,161,229,179,188,85,125,215
128835285,159,216,161,187,84,123,216
128868618,158,192,138,186,82,121,216
128901951,174,202,224,194,85,122,216
128935284,169,187,185,189,84,122,215
128968617,163,195,166,187,86,123,217
129001950,159,181,165,189,86,120,216
129035283,158,193,193,188,85,123,216
129068616,157,192,200,187,86,123,215
129101949,158,204,157,186,85,123,216
129135282,156,214,182,186,83,121,215
129168615,158,194,173,185,85,122,216
129201948,156,171,155,185,85,121,215
129235281,165,204,198,185,85,122,215
129268614,161,196,207,186,86,123,215
129301947,158,182,161,185,83,123,218
129335280,157,182,205,186,85,121,215
129368613,160,187,164,184,87,124,216
129401946,157,181,170,185,85,121,220
129435279,163,208,148,186,85,122,215
129468612,163,191,167,184,83,123,210
129501945,162,200,154,185,87,123,184
129535278,171,205,136,186,92,123,177
129568611,189,445,203,185,87,121,178
129601944,172,338,161,185,184,129,180
129635277,174,297,167,184,176,126,179
129668610,164,309,200,190,136,124,185
129701943,161,297,156,187,186,123,189
129735276,174,276,188,185,135,122,195
129768609,191,331,205,185,186,124,206
129801942,172,244,160,186,158,121,220
129835275,208,352,163,185,150,128,240
129868608,194,435,166,186,122,124,244
129901941,202,443,211,184,107,130,229
129935274,187,370,298,186,220,132,248
129968607,185,338,232,185,165,128,236
130001940,196,367,302,186,123,125,243
130035273,190,330,381,202,117,125,242
130068606,180,374,243,194,105,131,241
130101939,216,427,576,189,151,128,241
130135272,185,361,469,188,173,127,219
130168605,202,527,516,188,135,129,219
130201938,230,654,1017,197,180,130,215
130235271,268,694,733,209,254,141,222
130268604,438,754,648,227,177,134,239
130301937,292,534,663,262,400,135,244
130335270,285,579,969,237,238,136,236
130368603,281,479,623,236,286,162,230
130401936,349,977,967,244,204,151,241
130435269,319,776,594,244,240,148,223
130468602,386,834,1014,234,203,163,241
130501935,275,526,707,213,180,177,224
130535268,417,753,1062,221,138,165,228
130568601,327,511,608,203,183,175,219
130601934,292,716,933,201,177,156,204
130635267,304,879,1076,292,207,158,214
130668600,423,873,1163,245,146,260,219
130701933,394,799,1255,303,117,291,274
130735266,412,559,998,351,120,208,270
130768599,392,832,1088,387,107,177,233
130801932,478,994,1255,437,377,185,246
130835265,435,897,852,389,232,194,237
130868598,597,1244,1431,368,169,194,247
130901931,489,950,1079,377,136,177,236
130935264,456,761,1113,366,112,219,252
130968597,375,958,861,1171,101,197,251
131001930,481,869,844,1117,98,166,275
131035263,442,1011,1483,746,103,228,263
131068596,306,611,834,617,128,181,260
131101929,514,1284,1363,496,114,198,300
131135262,481,1143,1063,434,194,202,288
131168595,474,858,1485,374,187,178,313
131201928,429,1364,1429,443,135,161,312
131235261,497,1064,1097,390,137,156,312
131268594,530,1029,1171,399,110,154,328
131301927,617,986,1288,457,159,158,420
131335260,599,960,1352,365,126,160,394
131368593,484,849,875,361,111,143,412
131401926,572,1187,1033,373,99,158,410
131435259,458,737,646,373,126,154,363
131468592,722,827,946,405,107,161,411
131501925,1227,820,876,404,105,154,355
131535258,1004,717,595,388,94,149,389
131568591,930,1303,1123,361,90,143,366
131601924,766,755,660,425,89,153,353
131635257,781,775,960,372,95,147,377
131668590,1384,725,887,444,96,138,343
131701923,894,620,771,418,95,141,355
131735256,1229,709,916,365,105,148,332
131768589,806,731,860,377,99,149,339
131801922,1376,997,987,346,96,155,337
131835255,948,689,882,337,91,145,308
131868588,986,829,933,381,88,153,311
131901921,1452,952,1447,386,102,165,315
131935254,1059,623,853,442,93,148,286
131968587,938,1010,1380,434,89,151,302
132001920,936,787,1027,537,87,152,273
132035253,715,668,718,446,89,142,287
132068586,1180,1040,1461,421,91,137,273
132101919,744,808,955,460,90,136,262
132135252,790,919,1389,404,100,132,287
132168585,853,1290,1626,437,94,132,277
132201918,857,792,951,412,94,130,250
132235251,716,884,1522,326,88,129,257
132268584,859,785,1160,308,92,130,247
132301917,852,589,1108,271,91,160,251
132335250,905,1107,1482,292,92,149,247
132368583,783,819,1262,366,88,139,232
132401916,973,977,1349,350,90,135,234
132435249,944,951,1003,372,90,135,246
132468582,676,744,1185,355,87,146,230
132501915,822,751,1151,388,85,152,223
132535248,605,819,904,333,96,166,214
132568581,1011,770,1067,364,91,147,221
132601914,942,947,1318,480,87,154,235
132635247,933,745,1341,387,89,143,224
132668580,690,757,1059,446,89,142,227
132701913,735,828,1148,402,86,144,225
132735246,803,753,969,578,89,152,220
132768579,889,1170,1080,608,92,144,237
132801912,925,934,1081,552,90,152,226
132835245,820,972,1707,502,90,148,231
132868578,1004,1192,1253,453,90,147,223
132901911,1010,1005,1210,484,88,137,217
132935244,1063,995,986,439,92,135,213
132968577,815,1042,916,479,87,135,221
133001910,997,993,724,460,86,130,219
133035243,796,1090,855,451,88,130,222
133068576,741,772,976,358,85,129,218
133101909,956,669,825,350,88,131,216
133135242,754,557,931,294,88,134,216
133168575,805,788,1026,313,87,167,212
133201908,767,1359,1106,322,87,152,208
133235241,558,941,663,318,86,152,214
133268574,747,852,954,443,88,145,206
133301907,639,808,776,397,87,150,209
133335240,450,598,621,369,86,142,214
133368573,712,854,924,317,86,141,210
133401906,635,971,737,325,89,135,208
133435239,655,824,1110,308,85,132,208
133468572,904,1256,1270,293,87,139,208
133501905,591,851,874,310,88,132,212
133535238,626,1085,883,296,84,151,209
133568571,735,886,852,263,88,143,210
133601904,938,1338,834,281,87,147,215
133635237,955,1403,1163,260,86,136,215
133668570,1056,1196,1213,300,89,146,219
133701903,713,762,939,328,89,140,217
133735236,833,721,911,308,87,135,218
133768569,725,976,897,313,85,140,218
133801902,838,799,1057,360,89,136,215
133835235,732,1071,1128,297,89,152,214
133868568,1042,974,952,331,91,137,215
133901901,712,979,893,309,86,139,207
133935234,1040,1102,893,331,89,143,211
133968567,770,1051,978,370,90,135,209
134001900,890,879,879,334,87,145,213
134035233,989,955,841,347,89,139,217
134068566,1118,1366,1524,323,87,136,218
134101899,1277,870,1112,426,90,144,216
134135232,1144,756,993,425,91,139,218
134168565,1073,969,863,425,90,162,217
134201898,925,655,717,348,89,144,221
134235231,1121,1496,1709,311,91,157,219
134268564,930,1011,1063,335,87,145,218
134301897,1023,1085,1225,374,88,150,220
134335230,879,1011,790,329,86,160,219
134368563,739,1092,827,334,86,147,216
134401896,809,1015,1097,323,88,145,218
134435229,1068,822,935,382,89,137,213
134468562,895,962,894,340,87,142,213
134501895,868,886,959,324,85,146,215
134535228,940,961,994,257,88,140,217
134568561,668,792,991,265,87,141,217
134601894,645,1350,1114,322,87,157,218
134635227,835,1289,1392,257,90,168,218
134668560,694,804,880,259,88,171,210
134701893,767,1144,1186,236,89,184,209
134735226,980,1367,1037,212,88,180,218
134768559,828,834,688,215,105,168,217
134801892,891,1298,1387,201,99,251,217
134835225,851,1027,1091,200,96,210,217
134868558,628,1199,967,217,117,214,214
134901891,606,1068,1132,220,114,281,217
134935224,649,904,858,204,103,248,222
134968557,935,1331,762,264,105,227,218
135001890,630,996,728,243,98,195,216
135035223,651,1102,759,252,96,261,214
135068556,572,867,1022,218,91,258,216
135101889,849,1218,733,227,89,227,218
135135222,648,817,737,216,111,273,218
135168555,458,804,571,258,101,248,220
135201888,499,925,842,227,98,345,212
135235221,501,640,832,267,109,273,215
135268554,361,706,615,306,157,290,216
135301887,371,775,756,300,169,262,216
135335220,305,717,573,335,163,229,216
135368553,284,836,619,335,150,216,216
135401886,261,726,476,367,175,262,216
135435219,286,823,426,360,242,291,216
135468552,229,713,428,385,318,268,217
135501885,268,899,497,382,311,290,219
135535218,232,803,317,411,259,246,217
135568551,359,949,522,328,395,251,216
135601884,252,702,336,300,343,227,260
135635217,265,684,354,259,358,243,242
135668550,209,510,259,369,384,191,230
135701883,213,509,294,286,399,296,224
135735216,204,422,253,333,380,243,229
135768549,232,550,225,260,345,213,227
135801882,193,479,277,266,363,228,237
135835215,184,431,312,237,378,331,259
135868548,193,418,312,225,288,236,245
135901881,200,575,245,209,338,193,233
135935214,236,507,273,197,276,199,229
135968547,244,560,234,193,247,177,226
136001880,270,603,358,223,247,168,219
136035213,213,431,263,202,288,180,213
136068546,307,544,245,196,244,183,214
136101879,240,358,189,203,250,167,218
136135212,278,419,198,200,303,193,218
136168545,216,304,172,192,311,188,219
136201878,308,532,230,190,227,164,219
136235211,247,354,225,188,401,205,219
136268544,299,499,245,193,284,178,212
136301877,227,510,251,189,266,165,195
136335210,240,751,301,194,213,157,200
136368543,235,650,327,193,355,188,196
136401876,381,853,427,205,274,164,202
136435209,290,810,406,200,216,159,208
136468542,260,846,419,199,165,146,211
136501875,388,955,545,195,258,142,228
136535208,361,842,409,191,200,143,214
136568541,277,764,363,189,235,154,217
136601874,333,839,365,187,168,148,203
136635207,371,752,315,186,217,159,202
136668540,343,616,240,184,237,157,197
136701873,260,601,190,184,237,161,183
136735206,241,705,227,186,224,153,199
136768539,200,488,182,186,340,161,207
136801872,205,572,245,185,217,144,212
136835205,202,464,219,185,258,147,213
136868538,185,466,186,183,168,140,216
136901871,185,605,189,185,234,140,216
136935204,181,536,215,188,170,132,216
136968537,248,520,195,199,231,145,217
137001870,217,500,225,191,159,134,216
137035203,251,602,271,220,135,131,216
137068536,261,469,293,201,117,131,215
137101869,219,578,262,192,118,125,215
137135202,230,540,299,191,180,132,216
137168535,211,461,269,188,227,132,215
137201868,242,519,243,190,155,131,215
137235201,214,388,213,187,217,136,216
137268534,240,524,220,214,177,130,215
137301867,211,424,193,215,139,129,216
137335200,232,613,404,199,140,127,216
137368533,209,419,277,193,114,125,216
137401866,190,347,202,188,161,130,217
137435199,176,505,217,187,127,127,216
137468532,171,383,170,186,257,130,217
137501865,163,364,192,186,183,130,215
137535198,174,483,235,184,175,147,217
137568531,166,355,176,183,190,135,215
137601864,165,321,187,184,134,130,217
137635197,177,441,163,183,195,131,216
137668530,166,334,189,184,140,127,216
137701863,165,332,194,183,179,131,216
137735196,160,298,183,184,130,127,216
137768529,166,364,202,183,133,128,216
137801862,162,280,156,184,114,127,216
137835195,171,354,206,183,130,127,216
137868528,160,261,203,183,135,128,216
137901861,164,306,172,184,113,128,215
137935194,161,315,166,184,143,129,215
137968527,158,273,168,184,129,127,219
138001860,161,373,157,186,116,124,215
138035193,161,356,155,185,107,124,218
138068526,161,342,201,188,135,126,213
138101859,157,251,167,186,162,125,216
138135192,162,326,182,192,130,130,214
138168525,160,343,154,188,171,127,216
138201858,161,321,157,188,133,128,215
138235191,159,260,190,187,159,125,216
138268524,156,282,162,186,121,124,215
138301857,156,328,139,188,125,126,216
138335190,156,236,128,185,134,128,216
138368523,161,299,186,184,170,130,216
138401856,159,223,150,185,127,124,216
138435189,166,220,140,185,124,124,217
138468522,162,285,155,189,119,124,216
138501855,165,324,209,185,104,125,215
138535188,160,342,167,186,97,124,216
138568521,159,247,190,184,100,123,215
138601854,159,311,189,184,153,124,216
138635187,179,280,171,186,148,124,216
138668520,167,234,180,184,117,124,217
138701853,166,410,155,187,110,125,216
138735186,160,291,135,185,100,125,217
138768519,160,262,198,187,99,124,216
138801852,157,212,179,185,92,124,217
138835185,157,201,144,184,94,125,216
138868518,156,172,130,187,90,123,214
138901851,159,212,131,184,87,123,216
138935184,157,190,147,183,85,124,217
138968517,155,182,205,183,86,124,217
139001850,165,203,162,184,84,123,216
139035183,173,277,169,186,84,124,216
139068516,164,243,141,188,85,121,216
139101849,165,263,205,186,85,124,216
139135182,161,232,161,187,83,124,216
139168515,175,340,191,186,84,123,216
139201848,175,273,156,189,84,123,216
139235181,180,415,237,186,84,123,216
139268514,170,298,175,192,86,123,217
139301847,211,322,187,188,82,123,216
139335180,184,320,185,190,86,123,216
139368513,170,247,194,188,84,123,217
139401846,163,254,176,188,81,123,217
139435179,163,390,163,189,83,123,217
139468512,163,313,166,187,85,126,216
139501845,157,324,217,187,86,124,216
139535178,158,279,168,186,83,126,216
139568511,162,281,141,187,82,124,215
139601844,159,231,188,187,83,124,216
139635177,173,225,185,187,84,122,216
139668510,165,201,152,186,83,122,215
139701843,167,311,180,189,87,122,215
139735176,161,360,217,186,85,123,215
139768509,158,281,249,187,85,122,216
139801842,168,356,206,187,82,124,216
139835175,162,259,162,186,82,123,216
139868508,169,346,242,186,83,122,216
139901841,171,331,179,184,82,125,216
139935174,164,280,158,185,84,125,216
139968507,173,248,204,187,84,125,217
140001840,164,201,169,185,84,126,216
140035173,161,332,161,185,84,123,215
140068506,157,287,172,185,82,124,216
140101839,163,265,184,185,81,124,216
140135172,162,258,167,185,84,122,213
140168505,159,227,159,185,83,124,215
140201838,156,220,177,186,84,123,218
140235171,155,182,164,186,86,123,216
140268504,175,285,141,186,85,124,216
140301837,165,240,168,185,86,123,215
140335170,160,263,167,184,84,126,215
140368503,160,306,143,183,87,124,216
140401836,157,297,168,184,136,125,214
140435169,156,333,161,185,125,124,218
140468502,157,337,151,184,229,128,217
140501835,164,269,211,187,161,123,217
140535168,158,263,178,186,301,128,210
140568501,167,360,212,186,259,125,213
140601834,187,295,213,186,167,127,242
140635167,176,407,175,185,180,124,231
140668500,186,410,324,197,157,125,233
140701833,177,309,235,189,118,123,224
140735166,178,444,368,187,100,122,224
140768499,200,356,245,201,94,126,324
140801832,231,566,373,194,93,134,287
140835165,250,518,334,195,89,129,258
140868498,243,553,298,194,86,130,263
140901831,251,466,337,189,84,124,255
140935164,258,665,761,207,85,124,248
140968497,266,485,485,199,86,124,251
141001830,245,420,378,193,87,131,258
141035163,241,482,444,188,87,130,286
141068496,229,432,498,187,88,124,279
141101829,242,409,373,189,88,127,261
141135162,245,374,465,193,88,124,298
141168495,219,564,365,191,86,126,288
141201828,261,473,418,188,87,123,272
141235161,221,718,404,197,89,134,278
141268494,209,601,363,193,83,128,266
141301827,213,602,420,189,174,127,272
141335160,202,435,353,187,134,128,250
141368493,232,533,605,186,495,134,257
141401826,209,445,469,187,351,129,230
141435159,209,520,389,185,270,130,243
141468492,206,573,372,185,209,129,218
141501825,183,420,257,186,255,129,211
141535158,178,475,265,187,623,134,191
141568491,172,350,298,186,380,128,182
141601824,165,322,236,185,477,138,180
141635157,163,412,246,184,413,129,194
141668490,172,420,289,186,299,129,203
141701823,172,389,277,183,232,130,209
141735156,210,410,235,184,217,126,211
141768489,249,371,268,214,172,126,213
141801822,203,349,275,198,125,126,214
141835155,201,494,307,196,106,128,214
141868488,195,382,240,188,93,126,214
141901821,174,371,179,188,89,126,216
141935154,171,407,247,185,88,124,216
141968487,167,346,183,185,87,125,216
142001820,170,427,232,185,87,123,216
142035153,168,311,234,192,87,126,215
142068486,161,277,179,189,86,124,215
142101819,162,244,226,186,84,124,216
142135152,161,360,220,185,86,124,214
142168485,170,263,170,190,84,128,215
142201818,171,271,185,186,85,124,215
142235151,162,286,182,188,83,123,216
142268484,160,359,225,188,83,123,213
142301817,160,295,211,194,83,121,213
142335150,166,269,180,189,84,123,213
142368483,163,233,181,187,82,125,215
142401816,162,325,197,186,84,123,215
142435149,159,281,159,186,84,122,213
142468482,159,377,268,185,85,126,215
142501815,156,294,193,186,84,124,216
142535148,176,336,169,185,86,123,217
142568481,165,326,204,184,84,122,213
142601814,161,292,165,186,84,124,213
142635147,157,224,143,186,84,122,214
142668480,157,357,192,186,85,123,215
142701813,155,273,195,191,85,121,215
142735146,185,394,210,189,87,125,216
142768479,176,296,206,187,84,123,215
142801812,167,321,174,189,84,122,216
142835145,164,401,207,195,84,122,216
142868478,159,303,203,191,84,122,216
142901811,165,288,201,197,83,124,216
142935144,163,359,173,193,83,122,215
142968477,161,325,150,187,84,122,215
143001810,158,235,142,186,81,123,216
143035143,155,208,132,187,84,122,214
143068476,161,235,185,189,84,122,216
143101809,160,208,153,187,82,124,216
143135142,157,215,139,186,82,123,226
143168475,159,286,167,184,85,125,221
143201808,158,240,163,185,83,123,238
143235141,170,347,145,187,83,127,230
143268474,169,299,192,186,88,125,269
143301807,174,427,187,186,107,123,246
143335140,167,361,212,186,102,124,240
143368473,171,321,247,190,250,139,233
143401806,201,403,253,189,401,152,227
143435139,185,401,216,193,279,140,244
143468472,230,440,246,198,584,142,231
143501805,225,476,214,216,481,148,228
143535138,324,500,341,280,279,134,219
143568471,374,447,256,237,580,145,219
143601804,265,401,242,212,593,142,208
143635137,260,322,282,198,444,144,210
143668470,205,308,226,193,331,138,212
143701803,181,302,177,188,351,143,213
143735136,168,331,195,187,230,134,214
143768469,167,280,212,189,164,133,214
143801802,168,278,233,192,120,133,215
143835135,161,230,225,194,104,133,216
143868468,163,417,277,192,94,124,214
143901801,162,317,201,195,91,128,213
143935134,165,338,210,190,89,128,215
143968467,167,393,176,192,87,124,217
144001800,161,272,181,187,87,127,212
144035133,171,305,179,185,81,125,221
144068466,163,363,160,185,87,124,220
144101799,170,387,220,185,84,126,256
144135132,164,386,226,185,83,124,246
144168465,168,451,252,185,85,122,356
144201798,163,409,206,185,85,124,339
144235131,165,403,372,186,87,123,298
144268464,173,448,282,185,85,127,285
144301797,220,500,383,185,87,128,257
144335130,274,495,312,187,90,137,265
144368463,263,521,297,198,102,154,243
144401796,317,915,480,213,109,143,260
144435129,263,669,522,255,101,136,253
144468462,297,969,769,226,285,143,240
144501795,253,669,957,210,568,164,232
144535128,205,492,522,198,862,188,228
144568461,209,458,338,198,607,176,202
144601794,213,518,338,192,403,148,207
144635127,192,361,259,188,533,149,209
144668460,196,357,235,198,343,137,212
144701793,179,362,247,205,281,142,219
144735126,248,398,232,199,203,134,220
144768459,225,478,191,193,147,130,223
144801792,208,419,236,194,120,129,219
144835125,181,462,198,186,101,126,226
144868458,172,348,182,187,93,125,222
144901791,171,396,267,186,91,127,218
144935124,165,395,222,192,88,125,218
144968457,165,441,305,189,86,123,217
145001790,166,432,245,187,86,123,217
145035123,162,475,256,192,84,124,215
145068456,179,504,208,188,87,125,216
145101789,172,425,205,187,81,123,215
145135122,168,368,222,184,87,124,216
145168455,167,385,185,186,86,123,216
145201788,169,400,262,185,87,123,215
145235121,165,286,202,185,83,121,216
145268454,194,439,195,185,86,122,216
145301787,172,329,209,184,85,122,217
145335120,168,312,221,186,84,122,218
145368453,173,396,211,185,85,124,216
145401786,177,349,169,187,84,121,216
145435119,165,311,224,186,84,123,215
145468452,163,388,196,186,81,123,216
145501785,161,323,170,186,85,123,216
145535118,162,361,155,187,83,122,216
145568451,159,250,205,184,83,129,215
145601784,180,307,188,185,84,124,216
145635117,170,258,178,186,86,123,216
145668450,163,222,166,189,86,121,216
145701783,167,315,193,190,86,122,216
145735116,166,423,176,186,85,123,215
145768449,166,338,168,193,86,124,215
145801782,160,332,211,188,86,124,216
145835115,163,332,205,186,86,123,215
145868448,171,436,192,187,85,123,216
145901781,167,320,247,187,85,124,216
145935114,161,261,192,185,83,122,215
145968447,164,334,174,185,83,122,215
146001780,160,303,185,186,84,121,216
146035113,165,294,176,183,83,122,215
146068446,172,403,172,185,86,122,216
146101779,164,284,225,185,98,123,216
146135112,176,304,225,185,89,121,216
146168445,165,223,169,184,143,126,216
146201778,162,182,141,190,162,123,215
146235111,165,171,169,194,205,125,216
146268444,160,157,140,213,191,123,218
146301777,198,200,148,202,132,123,216
146335110,177,175,180,209,126,125,215
146368443,192,179,163,201,105,126,211
146401776,173,187,167,198,104,128,195
146435109,168,316,201,191,100,137,192
146468442,172,359,184,199,90,136,195
146501775,172,267,169,196,86,128,222
146535108,168,319,204,189,87,128,250
146568441,171,409,249,189,85,123,239
146601774,182,394,232,191,86,123,226
146635107,192,543,306,200,86,122,216
146668440,181,439,215,192,87,122,220
146701773,182,420,246,187,85,123,210
146735106,177,430,198,186,84,122,212
146768439,166,455,241,189,88,123,213
146801772,166,450,252,187,88,124,213
146835105,171,376,294,190,88,123,215
146868438,171,382,214,187,87,127,214
146901771,166,459,203,186,89,125,218
146935104,161,373,197,184,85,123,216
146968437,164,378,176,184,85,125,215
147001770,177,327,271,190,84,122,226
147035103,166,367,199,194,85,123,219
147068436,216,392,196,194,84,123,237
147101769,190,406,224,189,88,123,229
147135102,179,308,219,186,85,122,224
147168435,178,410,239,190,88,122,219
147201768,177,387,197,192,85,122,218
147235101,183,441,227,191,86,125,216
147268434,196,458,250,185,84,122,219
147301767,190,397,221,186,83,125,217
147335100,194,667,412,186,88,125,217
147368433,176,408,259,188,84,125,216
147401766,186,413,233,186,85,123,215
147435099,172,447,210,185,84,123,216
147468432,207,516,274,185,84,123,215
147501765,184,412,278,184,82,122,216
147535098,180,367,220,184,84,126,216
147568431,192,482,209,214,84,123,216
147601764,174,394,247,199,86,124,215
147635097,177,535,203,193,83,124,216
147668430,171,454,187,197,86,126,216
147701763,183,368,245,193,85,122,211
147735096,173,503,234,190,86,123,213
147768429,172,395,211,188,85,123,214
147801762,192,483,271,190,83,121,215
147835095,177,442,207,189,85,122,215
147868428,191,424,235,186,87,123,216
147901761,183,462,230,184,84,123,216
147935094,180,488,217,190,83,122,211
147968427,181,391,247,187,85,123,213
148001760,171,377,229,186,85,124,226
148035093,169,515,254,185,86,124,231
148068426,177,603,378,190,163,169,555
148101759,218,531,429,189,255,452,586
148135092,225,519,553,190,211,388,574
148168425,207,513,463,194,152,292,485
148201758,196,552,389,191,160,228,688
148235091,245,511,380,186,121,179,499
148268424,207,331,251,186,129,155,388
148301757,256,462,275,202,107,149,318
148335090,255,379,256,193,96,134,278
148368423,239,326,245,207,87,129,252
148401756,229,456,211,197,86,128,240
148435089,213,380,261,198,87,125,232
148468422,191,398,217,191,88,124,224
148501755,172,422,307,193,84,123,215
148535088,204,549,274,187,85,124,215
148568421,181,480,259,186,86,126,215
148601754,182,409,278,184,84,124,215
148635087,175,482,194,184,83,123,216
148668420,181,445,263,185,86,123,214
148701753,171,310,220,183,85,121,216
148735086,170,368,203,185,85,123,216
148768419,161,407,192,183,83,124,216
148801752,164,353,245,183,82,123,215
148835085,166,378,258,183,83,120,218
148868418,161,297,194,184,86,122,216
148901751,169,439,322,184,83,121,216
148935084,164,344,219,183,84,123,216
148968417,170,388,191,183,84,122,215
149001750,164,470,203,183,84,122,215
149035083,164,373,184,184,86,124,216
149068416,170,278,203,184,84,121,216
149101749,175,533,233,184,86,124,216
149135082,187,389,208,185,88,123,216
149168415,177,370,208,191,87,124,212
149201748,178,402,229,184,84,124,216
149235081,176,424,265,194,105,137,330
149268414,172,461,315,189,203,302,485
149301747,187,529,306,191,387,437,826
149335080,195,601,356,191,410,408,775
149368413,193,440,269,187,261,292,600
149401746,253,679,303,187,199,211,499
149435079,256,444,227,194,148,179,367
149468412,232,367,422,188,117,161,312
149501745,243,500,426,188,104,143,271
149535078,206,409,327,189,95,138,250
149568411,188,409,348,189,99,137,231
149601744,185,413,260,190,99,129,238
149635077,172,340,263,186,89,124,217
149668410,202,429,211,185,89,122,202
149701743,213,417,210,195,85,124,198
149735076,218,418,287,189,86,122,203
149768409,199,383,313,186,83,124,209
149801742,179,377,249,186,86,124,212
149835075,178,443,254,188,88,123,214
149868408,176,367,228,187,86,122,213
149901741,180,412,236,185,85,121,215
149935074,175,368,211,184,85,123,215
149968407,166,343,203,184,82,129,216
150001740,189,330,217,184,83,126,216
150035073,171,380,184,184,85,125,216
150068406,172,407,320,184,83,124,216
150101739,165,284,228,185,85,123,215
150135072,164,445,217,184,85,122,216
150168405,161,418,245,186,84,125,217
150201738,169,346,207,185,83,121,216
150235071,163,332,217,185,86,123,215
150268404,199,443,212,188,88,124,215
150301737,185,341,187,185,83,122,216
150335070,172,401,265,185,85,123,216
150368403,167,361,229,185,87,122,216
150401736,164,385,294,184,83,122,215
150435069,171,287,229,184,83,123,216
150468402,169,429,235,183,85,124,215
150501735,164,333,240,194,86,121,216
150535068,174,291,205,188,87,120,215
150568401,166,337,199,188,85,121,216
150601734,166,247,223,186,85,123,216
150635067,183,695,219,191,83,122,216
150668400,182,475,229,192,85,123,216
150701733,172,373,236,190,83,122,216
150735066,236,546,294,199,84,124,216
150768399,196,351,225,193,86,122,216
150801732,222,565,279,193,87,123,216
150835065,187,420,197,190,84,124,215
150868398,178,480,310,196,86,121,216
150901731,187,501,245,192,87,121,216
150935064,178,490,280,204,86,124,215
150968397,178,492,241,198,87,123,216
151001730,167,394,203,199,85,122,216
151035063,173,471,282,198,86,122,215
151068396,165,321,224,191,82,124,216
151101729,170,510,233,197,84,123,216
151135062,165,381,246,189,82,122,216
151168395,172,374,263,197,84,125,216
151201728,164,414,230,191,84,123,216
151235061,167,354,289,204,84,124,215
151268394,170,270,228,198,84,123,216
151301727,164,419,227,192,85,123,216
151335060,160,323,182,187,84,122,215
151368393,157,237,189,185,84,122,215
151401726,161,309,259,189,87,121,216
151435059,158,408,211,187,84,122,216
151468392,159,318,234,188,81,123,216
151501725,185,357,243,189,87,123,215
151535058,166,378,204,195,84,122,216
151568391,190,399,265,189,85,122,216
151601724,179,362,195,190,86,123,219
151635057,184,414,393,229,86,123,219
151668390,170,314,363,238,91,122,215
151701723,201,360,309,286,91,122,213
151735056,260,449,317,375,100,123,214
151768389,204,316,216,378,98,123,209
151801722,236,490,366,285,91,123,207
151835055,195,336,235,285,111,121,202
151868388,226,467,293,268,96,122,202
151901721,202,453,293,224,91,122,208
151935054,184,337,226,214,85,122,211
151968387,176,350,214,199,85,122,213
152001720,182,334,248,194,88,122,214
152035053,202,353,205,198,86,122,215
152068386,178,304,238,190,84,124,216
152101719,187,337,274,189,83,123,216
152135052,172,312,287,194,87,121,216
152168385,185,328,274,194,88,122,216
152201718,175,266,271,259,87,124,216
152235051,227,537,245,236,86,122,216
152268384,189,359,180,301,89,123,220
152301717,232,312,277,324,95,123,219
152335050,203,340,201,549,115,123,269
152368383,201,417,231,453,134,123,248
152401716,180,331,204,597,123,123,289
152435049,183,480,281,536,120,124,261
152468382,178,317,244,738,123,125,286
152501715,213,425,260,618,116,126,273
152535048,192,425,218,534,232,129,247
152568381,184,481,358,665,248,130,236
152601714,207,465,287,917,201,125,256
152635047,229,498,359,1422,171,124,270
152668380,225,539,265,1436,523,145,249
152701713,242,543,338,2441,307,135,233
152735046,246,569,290,2247,198,137,245
152768379,229,575,320,2026,161,131,291
152801712,261,505,254,2200,159,127,261
152835045,297,619,285,1702,121,126,240
152868378,307,681,354,2498,144,131,292
152901711,360,740,437,1515,116,127,258
152935044,328,632,330,1682,99,128,241
152968377,356,708,505,1168,91,124,231
153001710,257,619,407,1140,88,123,253
153035043,261,641,517,1063,87,121,237
153068376,216,535,432,779,89,126,238
153101709,264,669,432,821,88,123,232
153135042,213,528,383,620,91,124,228
153168375,235,539,435,662,91,123,223
153201708,234,594,448,809,89,124,219
153235041,250,744,386,618,88,123,214
153268374,245,534,402,742,91,123,316
153301707,247,695,378,704,90,131,283
153335040,256,508,377,876,121,129,434
153368373,244,826,372,762,102,127,348
153401706,246,709,397,882,107,128,314
153435039,211,744,476,717,97,124,264
153468372,245,792,390,663,92,122,234
153501705,277,634,408,761,88,122,230
153535038,226,507,384,661,87,122,234
153568371,274,611,480,623,90,122,227
153601704,245,559,483,756,92,123,232
153635037,277,605,440,575,88,123,237
153668370,264,528,373,480,96,129,227
153701703,217,501,326,548,94,127,218
153735036,207,488,364,479,130,127,222
153768369,226,498,378,407,118,127,213
153801702,211,486,267,427,101,125,216
153835035,199,584,286,427,93,126,219
153868368,245,595,301,479,91,124,217
153901701,200,529,312,414,90,125,229
153935034,207,524,348,449,87,125,224
153968367,182,425,272,358,88,123,218
154001700,225,424,330,432,87,123,218
154035033,208,476,291,476,89,124,221
154068366,221,601,311,497,91,124,218
154101699,213,469,359,580,100,127,246
154135032,203,522,354,602,94,128,291
154168365,237,501,302,721,96,128,314
154201698,266,665,378,594,94,135,283
154235031,293,461,311,825,89,127,317
154268364,242,530,454,787,96,125,273
154301697,216,490,322,898,91,127,342
154335030,209,559,316,678,89,126,292
154368363,207,596,361,852,86,125,270
154401696,245,652,321,882,87,126,274
154435029,239,625,337,674,86,124,282
154468362,236,673,309,609,86,122,259
154501695,216,569,423,621,86,122,250
154535028,241,416,310,580,86,124,259
154568361,218,646,378,755,87,123,267
154601694,247,504,405,658,87,124,247
154635027,219,509,313,658,85,122,236
154668360,241,529,305,583,87,122,244
154701693,225,600,286,561,91,126,241
154735026,247,417,329,466,87,124,250
154768359,221,423,295,529,91,124,238
154801692,208,391,230,466,86,125,233
154835025,203,399,289,543,86,124,234
154868358,208,437,255,477,87,124,225
154901691,193,343,189,432,85,124,259
154935024,249,353,310,437,83,122,244
154968357,214,397,212,420,87,124,233
155001690,187,357,244,399,85,123,230
155035023,246,411,260,386,87,122,223
155068356,204,323,188,339,85,122,248
155101689,220,310,270,308,83,122,249
155135022,202,314,241,362,83,126,236
155168355,181,348,236,316,88,122,229
155201688,179,331,332,278,86,125,224
155235021,182,329,274,281,87,123,219
155268354,176,275,199,289,130,122,220
155301687,172,300,186,290,143,123,226
155335020,222,451,266,288,114,122,223
155368353,193,345,210,258,150,124,220
155401686,214,534,246,287,123,123,215
155435019,192,479,207,285,122,125,216
155468352,183,381,171,251,111,125,216
155501685,171,347,146,232,165,124,225
155535018,265,388,230,248,126,125,223
155568351,211,278,180,234,137,125,220
155601684,196,238,153,249,270,124,219
155635017,234,375,261,224,173,129,217
155668350,236,391,257,211,131,126,216
155701683,215,481,291,205,106,124,216
155735016,315,533,290,196,96,124,216
155768349,261,520,248,191,92,123,215
155801682,224,487,321,190,88,122,216
155835015,215,416,233,189,88,123,216
155868348,240,343,233,187,86,122,215
155901681,263,525,266,199,85,124,216
155935014,222,453,303,193,86,121,215
155968347,212,556,382,212,84,120,215
156001680,262,678,334,216,86,122,216
156035013,256,606,515,262,88,123,218
156068346,228,565,527,233,86,121,215
156101679,316,552,471,244,87,122,215
156135012,306,500,543,217,87,121,216
156168345,299,526,403,208,88,123,216
156201678,295,599,411,223,136,121,215
156235011,229,413,301,282,175,121,229
156268344,224,474,285,608,228,131,288
156301677,250,519,236,733,201,127,297
156335010,226,377,269,1200,185,128,327
156368343,285,614,357,1448,145,127,297
156401676,264,514,302,1578,151,128,341
156435009,298,674,369,2310,142,124,290
156468342,339,629,431,2052,116,125,259
156501675,345,738,433,2500,100,123,240
156535008,280,548,423,2879,96,123,231
156568341,255,762,435,2286,92,125,226
156601674,225,513,385,1850,93,128,239
156635007,257,550,472,1155,91,126,259
156668340,269,545,354,1292,91,124,239
156701673,216,397,290,788,89,121,230
156735006,253,536,370,765,102,124,221
156768339,219,446,279,493,129,123,219
156801672,266,587,395,428,132,123,213
156835005,214,481,326,386,140,123,216
156868338,255,389,225,337,149,125,212
156901671,278,546,318,346,154,128,214
156935004,253,391,307,352,167,124,214
156968337,242,380,240,319,152,121,211
157001670,198,300,182,263,120,123,216
157035003,211,307,178,516,104,134,271
157068336,259,381,227,392,103,127,247
157101669,246,483,275,405,385,146,229
157135002,231,423,290,315,365,135,222
157168335,244,467,267,286,225,134,215
157201668,273,488,336,241,268,134,197
157235001,301,571,334,234,182,127,200
157268334,323,720,325,221,142,122,208
157301667,293,571,338,254,117,128,210
157335000,323,641,297,233,100,130,209
157368333,298,633,556,228,92,124,213
157401666,271,570,543,220,89,122,215
157434999,290,488,592,211,102,127,214
157468332,246,623,506,213,102,123,215
157501665,304,802,530,214,97,121,216
157534998,309,917,632,209,132,124,215
157568331,538,1048,881,215,123,122,214
157601664,341,739,563,312,226,127,251
157634997,348,671,511,467,247,130,244
157668330,279,427,341,1173,169,130,433
157701663,293,472,518,2092,168,133,502
157734996,251,389,349,3682,134,138,390
157768329,404,721,521,2713,133,135,332
157801662,279,490,375,2329,147,128,271
157834995,378,663,467,3274,150,125,241
157868328,335,594,426,3112,155,133,232
157901661,311,705,377,2959,165,128,240
157934994,320,724,359,3557,134,127,232
157968327,322,805,394,2083,111,125,231
158001660,266,552,335,1725,105,126,295
158034993,265,781,390,1486,181,125,268
158068326,224,516,268,912,241,126,244
158101659,353,727,434,554,159,127,232
158134992,268,741,401,673,147,127,242
158168325,335,730,408,480,176,127,230
158201658,294,560,443,437,132,125,232
158234991,275,563,336,436,153,126,223
158268324,246,448,306,354,139,123,222
158301657,209,424,283,301,136,124,218
158334990,209,561,264,309,135,126,218
158368323,238,490,213,287,124,124,217
158401656,230,481,292,274,178,124,214
158434989,233,593,382,287,129,123,216
158468322,231,614,268,242,108,123,216
158501655,315,620,314,213,165,123,215
158534988,250,559,424,198,137,123,213
158568321,302,593,472,197,110,123,217
158601654,276,514,325,195,97,120,212
158634987,256,549,399,198,89,122,216
158668320,266,642,489,193,89,123,216
158701653,292,520,440,189,88,123,216
158734986,275,548,400,188,91,125,217
158768319,356,632,571,186,87,121,215
158801652,308,637,499,218,98,127,213
158834985,348,544,564,202,144,125,215
158868318,312,675,463,215,127,124,216
158901651,300,614,453,204,138,126,215
158934984,285,770,530,228,169,129,212
158968317,263,645,430,267,142,128,236
159001650,220,471,342,608,223,144,387
159034983,301,520,530,712,204,133,335
159068316,254,433,339,1450,162,132,424
159101649,263,549,442,1476,136,131,370
159134982,279,608,363,1507,216,136,443
159168315,285,615,448,1415,217,132,340
159201648,243,575,360,2287,159,128,310
159234981,271,644,444,1705,119,125,264
159268314,243,571,421,2628,120,127,258
159301647,216,597,408,2050,103,125,242
159334980,215,441,390,1847,114,126,255
159368313,223,642,387,1720,98,125,258
159401646,268,503,284,2707,102,123,287
159434979,350,441,424,1572,121,126,260
159468312,250,606,332,1495,193,127,233
159501645,310,653,386,821,174,121,226
159534978,260,452,322,836,153,121,235
159568311,323,532,369,637,124,129,228
159601644,275,499,345,442,151,128,220
159634977,250,511,328,440,136,127,218
159668310,241,444,258,425,195,129,222
159701643,233,432,325,314,138,124,219
159734976,205,314,219,365,119,124,223
159768309,232,558,235,315,149,125,220
159801642,191,379,192,252,149,124,218
159834975,181,402,186,338,115,123,217
159868308,209,337,249,439,102,124,217
159901641,189,430,207,306,140,125,216
159934974,199,436,199,247,112,126,216
159968307,218,444,238,267,104,124,216
160001640,204,603,270,229,97,121,214
160034973,222,561,283,211,90,123,217
160068306,335,672,455,203,88,125,214
160101639,348,815,586,204,94,122,215
160134972,293,569,419,195,89,122,216
160168305,267,659,562,213,85,124,213
160201638,265,521,381,199,87,123,214
160234971,310,629,552,195,86,124,215
160268304,315,556,425,196,88,126,216
160301637,343,588,514,195,91,125,215
160334970,426,868,503,220,89,127,216
160368303,347,713,486,202,90,123,213
160401636,396,841,597,228,94,124,221
160434969,317,491,396,356,115,124,259
160468302,317,577,354,1102,151,125,264
160501635,279,624,320,2777,124,123,480
160534968,288,674,504,3319,104,123,402
160568301,380,785,531,3684,96,122,339
160601634,364,701,608,3390,93,122,353
160634967,302,615,462,3684,90,123,424
160668300,404,758,484,3683,88,121,361
160701633,346,573,515,3685,99,121,319
160734966,314,795,454,2780,92,121,357
160768299,312,573,493,2594,95,124,298
160801632,242,708,433,1554,127,126,329
160834965,333,622,441,1765,114,125,313
160868298,280,514,364,1381,189,125,282
160901631,250,487,345,1111,195,124,284
160934964,254,444,354,664,194,125,254
160968297,269,490,396,930,136,123,271
161001630,229,477,248,971,143,122,264
161034963,246,399,212,634,196,127,246
161068296,384,525,417,497,143,127,234
161101629,265,370,260,519,114,125,227
161134962,209,288,188,618,226,130,218
161168295,198,355,155,522,165,126,223
161201628,184,452,211,382,136,123,222
161234961,170,339,188,280,128,122,220
161268294,176,355,255,258,105,126,218
161301627,165,447,275,318,95,122,217
161334960,170,328,202,249,92,122,217
161368293,188,325,171,215,88,124,216
161401626,205,397,266,253,88,122,216
161434959,220,345,242,220,87,123,216
161468292,187,274,187,201,84,122,216
161501625,203,347,235,194,84,123,216
161534958,185,288,177,190,86,128,216
161568291,169,235,148,187,85,125,215
161601624,168,313,192,186,86,124,216
161634957,178,248,234,185,84,124,215
161668290,182,350,267,187,86,125,215
161701623,202,481,218,212,89,123,215
161734956,181,363,237,207,92,122,216
161768289,182,506,285,200,89,127,216
161801622,169,404,267,212,95,124,216
161834955,222,534,295,228,103,125,216
161868288,209,506,346,222,160,122,214
161901621,310,605,300,308,135,123,216
161934954,292,477,394,302,189,122,215
161968287,252,372,322,277,221,124,217
162001620,256,434,441,270,179,124,216
162034953,240,433,388,435,244,123,205
162068286,243,475,268,356,273,124,209
162101619,218,459,243,447,312,125,220
162134952,193,419,210,404,347,129,271
162168285,176,355,197,771,246,126,311
162201618,299,501,300,544,304,130,270
162234951,288,377,261,385,245,125,240
162268284,234,378,282,352,218,125,230
162301617,213,520,258,355,291,129,214
162334950,261,362,248,283,284,130,212
162368283,207,255,187,261,235,126,211
162401616,191,300,214,265,267,134,215
162434949,171,221,162,524,247,134,211
162468282,203,236,229,460,387,137,213
162501615,180,191,168,1470,283,129,262
162534948,166,184,151,1308,233,129,227
162568281,160,165,134,1966,174,127,250
162601614,179,257,231,1228,166,126,224
162634947,166,201,171,729,147,130,225
162668280,161,174,139,466,137,130,213
162701613,159,163,135,346,160,134,289
162734946,161,177,219,271,154,131,254
162768279,159,167,167,242,127,128,244
162801612,157,236,145,225,133,124,247
162834945,154,192,131,217,146,130,287
162868278,157,167,124,231,131,130,272
162901611,156,157,123,223,119,127,284
162934944,153,153,149,205,126,128,266
162968277,156,150,131,242,108,127,272
163001610,155,149,124,228,114,129,295
163034943,155,148,120,227,139,127,284
163068276,155,148,119,223,131,129,300
163101609,156,161,119,257,135,128,283
163134942,156,151,118,226,140,126,268
163168275,155,151,119,220,110,125,245
163201608,156,184,125,230,103,127,239
163234941,157,189,240,223,97,123,231
163268274,156,169,173,227,127,128,217
163301607,161,215,165,226,106,128,209
163334940,182,280,250,224,102,125,197
163368273,170,219,181,219,92,125,204
163401606,165,207,250,208,96,129,204
163434939,174,182,203,211,95,123,209
163468272,169,237,180,201,90,124,213
163501605,166,199,149,196,83,123,213
163534938,163,187,164,193,86,125,214
163568271,159,285,231,189,86,129,215
163601604,177,277,218,193,94,130,214
163634937,169,300,172,192,92,126,215
163668270,166,275,163,191,132,126,215
163701603,194,258,206,188,118,125,215
163734936,197,354,272,190,152,124,215
163768269,190,310,251,199,344,128,215
163801602,256,481,290,230,456,126,216
163834935,245,439,343,271,500,133,227
163868268,199,364,275,387,607,131,256
163901601,209,333,208,310,515,135,239
163934934,179,234,159,270,570,140,253
163968267,236,420,234,226,387,130,236
164001600,193,278,173,209,474,134,229
164034933,278,427,260,197,376,128,223
164068266,214,314,209,200,412,134,220
164101599,313,605,269,194,267,129,218
164134932,231,396,258,210,209,131,218
164168265,238,517,263,198,144,128,216
164201598,197,384,231,195,118,126,236
164234931,189,449,230,188,107,125,229
164268264,188,346,203,187,100,124,243
164301597,215,323,202,189,92,124,231
164334930,184,249,158,189,120,124,238
164368263,188,433,178,186,102,124,256
164401596,175,311,209,186,96,125,239
164434929,190,259,180,187,109,123,236
164468262,239,324,260,186,97,124,230
164501595,229,260,237,186,102,126,261
164534928,278,446,288,185,96,127,294
164568261,213,295,203,185,101,140,323
164601594,276,308,221,215,96,136,334
164634927,229,330,186,201,135,135,316
164668260,214,271,176,238,178,140,355
164701593,195,311,178,211,130,134,312
164734926,175,236,177,200,127,139,314
164768259,176,240,203,226,133,133,365
164801592,177,240,193,239,144,135,331
164834925,166,201,167,270,173,158,661
164868258,353,600,275,278,177,152,585
164901591,258,375,266,243,146,145,688
164934924,251,329,297,244,179,147,555
164968257,201,283,262,219,144,150,643
165001590,186,223,210,209,116,145,508
165034923,170,183,161,198,102,138,520
165068256,174,178,155,194,184,147,486
165101589,164,169,146,197,150,148,794
165134922,160,158,131,203,116,139,654
165168255,158,196,138,237,151,140,966
165201588,176,213,137,214,146,144,1076
165234921,181,252,137,741,189,142,1571
165268254,168,201,126,646,169,136,1264
165301587,170,245,138,1042,159,145,1436
165334920,162,206,130,1010,157,148,1201
165368253,163,218,135,1401,153,147,1564
165401586,166,265,147,1223,162,135,1515
165434919,166,221,150,1192,181,173,2375
165468252,191,268,166,1177,187,161,2713
165501585,196,293,172,1015,172,162,2620
165534918,178,231,144,1178,189,157,1879
165568251,165,222,134,1307,176,156,1897
165601584,161,227,142,1022,199,155,1835
165634917,159,201,132,1210,209,154,1515
165668250,162,196,132,855,205,149,1509
165701583,174,229,131,1026,188,154,1977
165734916,170,245,145,904,212,164,1733
165768249,175,250,145,1312,188,150,1726
165801582,174,262,151,843,168,146,1706
165834915,180,250,149,1205,154,157,1916
165868248,168,219,136,826,139,143,1467
165901581,181,258,160,1111,161,155,1523
165934914,173,217,140,772,204,146,1595
165968247,164,190,130,785,164,149,1245
166001580,160,182,124,875,190,144,1113
166034913,159,177,126,701,175,146,836
166068246,158,167,125,451,158,140,978
166101579,157,176,125,662,145,139,957
166134912,156,162,120,417,113,138,691
166168245,156,158,120,694,116,140,649
166201578,158,156,118,443,126,134,548
166234911,155,177,124,591,106,134,472
166268244,158,172,121,402,154,127,431
166301577,156,176,123,300,118,135,442
166334910,155,163,121,260,123,128,409
166368243,156,180,122,232,112,129,415
166401576,156,167,120,219,111,135,403
166434909,155,171,117,207,109,131,379
166468242,155,160,119,213,101,127,393
166501575,156,163,118,246,128,128,407
166534908,155,155,117,245,118,131,327
166568241,154,159,121,241,110,135,284
166601574,158,188,217,212,122,132,378
166634907,156,236,226,231,104,133,310
166668240,215,288,299,221,105,134,304
166701573,183,227,232,209,127,131,404
166734906,218,404,299,208,110,129,333
166768239,187,272,202,208,98,132,309
166801572,170,240,175,200,94,128,313
166834905,163,208,184,209,102,127,293
166868238,161,259,196,196,96,127,263
166901571,156,210,155,189,149,129,289
166934904,158,196,172,187,163,126,258
166968237,155,178,145,185,133,126,232
167001570,157,269,156,184,107,127,233
167034903,156,224,166,184,113,126,228
167068236,158,209,174,184,106,129,226
167101569,164,199,170,183,114,126,216
167134902,175,311,189,184,99,123,215
167168235,175,244,209,183,90,122,211
167201568,165,213,167,181,86,135,250
167234901,161,199,150,183,85,129,239
167268234,158,172,134,183,84,129,256
167301567,157,160,125,197,84,125,238
167334900,156,157,124,194,90,127,370
167368233,155,151,120,185,86,129,315
167401566,156,149,118,221,86,125,274
167434899,154,149,118,230,89,123,257
167468232,157,149,115,209,95,129,304
167501565,155,148,118,244,88,126,355
167534898,156,147,117,258,87,125,314
167568231,155,148,118,218,85,131,329
167601564,157,148,117,244,87,127,328
167634897,155,148,117,252,86,126,309
167668230,155,162,121,267,84,125,316
167701563,155,164,119,249,84,133,304
167734896,156,160,119,242,84,129,299
167768229,154,166,133,213,82,123,300
167801562,156,166,124,216,86,131,361
167834895,155,163,128,207,87,130,481
167868228,158,171,122,410,88,130,491
167901561,155,199,133,352,86,128,747
167934894,156,216,140,552,92,125,550
167968227,155,192,131,466,88,131,609
168001560,156,197,134,660,89,130,512
168034893,154,178,125,726,88,136,602
168068226,155,188,136,514,88,130,691
168101559,156,188,134,918,86,143,971
168134892,155,181,128,649,102,134,830
168168225,155,209,133,1046,94,137,1016
168201558,156,197,133,842,122,131,843
168234891,159,191,132,1126,107,130,877
168268224,157,218,134,1235,182,133,1081
168301557,156,197,143,1032,155,130,1049
168334890,156,242,156,1032,142,142,1230
168368223,157,237,155,1367,158,139,1157
168401556,157,229,152,1229,139,136,1165
168434889,159,245,160,1163,120,134,1184
168468222,157,239,148,1207,159,132,1008
168501555,160,221,150,941,146,129,1047
168534888,159,231,149,1148,218,141,912
168568221,157,201,135,920,161,132,928
168601554,164,237,184,1103,159,140,1267
168634887,159,203,150,829,165,134,1004
168668220,156,193,145,1195,131,131,1015
168701553,156,220,145,1227,211,141,1173
168734886,156,200,138,913,151,133,870
168768219,155,200,136,926,191,141,822
168801552,155,179,128,746,162,133,782
168834885,156,180,139,843,148,135,815
168868218,156,207,140,781,183,143,723
168901551,156,212,139,842,155,138,673
168934884,155,237,158,940,168,143,661
168968217,155,197,140,794,162,138,705
169001550,155,172,127,875,138,133,620
169034883,154,168,123,721,188,132,536
169068216,154,159,120,855,150,130,520
169101549,155,157,118,837,156,130,518
169134882,155,180,122,564,127,132,418
169168215,155,180,124,588,220,133,393
169201548,155,169,121,471,152,132,373
169234881,156,181,123,466,164,129,395
169268214,156,191,124,418,150,129,483
169301547,155,191,130,337,146,136,430
169334880,154,204,132,478,135,130,589
169368213,157,202,130,331,134,133,598
169401546,153,212,132,321,141,129,520
169434879,155,181,125,291,149,131,737
169468212,156,176,123,239,137,134,650
169501545,155,182,124,215,184,134,531
169534878,155,175,127,209,180,141,629
169568211,156,193,126,199,196,145,586
169601544,155,172,150,230,172,138,438
169634877,156,169,135,215,131,146,434
169668210,156,176,131,224,197,148,391
169701543,187,282,198,231,139,136,323
169734876,183,260,246,210,302,148,375
169768209,179,238,239,195,313,155,414
169801542,167,193,180,208,218,141,596
169834875,163,242,207,199,361,151,753
169868208,158,197,184,192,301,152,544
169901541,157,173,155,188,344,152,648
169934874,156,193,150,193,277,151,654
169968207,163,189,151,195,250,147,760
170001540,158,188,167,205,236,145,1202
170034873,156,175,139,330,194,143,1127
170068206,161,236,153,336,248,147,965
170101539,161,234,162,261,206,149,825
170134872,163,215,146,376,239,154,958
170168205,159,208,146,814,180,155,1170
170201538,162,244,179,713,371,177,1309
170234871,160,232,165,506,307,163,1441
170268204,174,246,175,695,291,192,1484
170301537,175,249,168,475,283,181,1518
170334870,182,230,160,324,227,173,1340
170368203,172,224,161,267,273,180,1299
170401536,172,241,148,627,204,186,1693
170434869,211,311,196,1161,477,215,1893
170468202,187,264,169,667,317,187,2117
170501535,181,244,157,701,318,183,1847
170534868,170,214,150,435,306,176,1506
170568201,170,218,158,345,299,176,1472
170601534,164,189,152,263,265,175,1289
170634867,173,222,154,231,245,160,1464
170668200,165,204,147,210,322,165,1261
170701533,165,215,144,214,258,190,1086
170734866,163,208,137,301,202,170,1215
170768199,181,211,145,331,206,173,1574
170801532,185,207,145,266,217,191,1295
170834865,177,189,135,332,239,178,1459
170868198,196,204,152,379,236,167,1795
170901531,187,218,162,277,254,185,1442
170934864,172,205,146,229,243,159,1309
170968197,165,197,139,211,254,163,1420
171001530,160,212,144,203,252,150,1186
171034863,186,228,145,228,206,150,1638
171068196,181,218,142,207,347,161,1801
171101529,168,204,140,195,248,174,1238
171134862,174,199,139,191,253,167,1424
171168195,179,219,167,187,286,176,1091
171201528,170,204,152,186,193,161,895
171234861,164,196,136,187,241,154,889
171268194,160,185,128,186,204,149,853
171301527,157,167,124,186,154,148,660
171334860,163,171,128,185,275,153,1015
171368193,178,173,133,190,267,155,2015
171401526,175,207,128,195,202,164,1695
171434859,187,236,133,414,177,151,1937
171468192,172,194,125,303,200,140,1420
171501525,163,182,123,241,191,163,1437
171534858,159,164,120,217,135,152,986
171568191,156,161,118,213,113,142,715
171601524,156,154,118,219,187,139,553
171634857,155,155,118,219,131,135,450
171668190,155,155,119,237,105,134,383
171701523,156,153,118,232,135,135,407
171734856,154,150,120,232,108,136,331
171768189,156,152,118,223,102,132,357
171801522,155,158,120,227,114,134,309
171834855,157,194,134,231,127,130,372
171868188,161,330,259,238,110,137,323
171901521,187,300,220,216,103,132,355
171934854,193,339,328,227,201,137,335
171968187,195,315,254,212,138,132,305
172001520,175,315,193,199,122,128,305
172034853,166,234,188,219,131,127,374
172068186,161,272,169,204,256,128,349
172101519,162,322,165,196,454,128,301
172134852,161,247,144,190,697,139,262
172168185,159,306,189,192,531,133,247
172201518,157,303,222,190,543,138,235
172234851,178,290,276,199,394,133,227
172268184,166,215,190,190,396,129,225
172301517,171,380,177,188,449,140,217
172334850,162,260,178,189,265,135,211
172368183,222,258,256,189,170,133,203
172401516,188,220,194,185,137,128,211
172434849,179,247,219,184,110,124,222
172468182,171,275,225,184,103,128,210
172501515,211,235,224,184,96,126,218
172534848,188,261,175,184,87,127,217
172568181,268,370,233,199,88,126,230
172601514,214,288,189,212,84,123,214
172634847,181,248,168,198,85,131,215
172668180,169,211,177,193,84,132,215
172701513,165,265,181,187,84,129,216
172734846,159,206,147,185,85,125,216
172768179,159,195,137,196,86,125,217
172801512,155,207,192,191,83,127,217
172834845,157,187,155,190,85,129,218
172868178,159,179,136,186,85,125,217
172901511,156,167,171,186,85,127,217
172934844,156,157,164,186,83,125,217
172968177,155,224,182,187,87,124,230
173001510,156,187,146,185,85,127,225
173034843,157,198,185,185,85,127,235
173068176,172,252,183,187,86,132,257
173101509,164,205,149,186,85,129,278
173134842,160,193,147,197,85,136,259
173168175,158,181,135,231,94,132,391
173201508,158,167,127,300,98,130,327
173234841,155,166,131,337,95,133,483
173268174,159,155,122,292,90,129,391
173301507,157,157,121,313,93,127,335
173334840,155,152,117,284,93,125,288
173368173,156,152,116,289,90,130,262
173401506,155,150,118,261,86,133,280
173434839,155,150,118,232,94,132,401
173468172,155,155,133,269,90,128,667
173501505,155,176,126,231,90,133,551
173534838,154,163,120,289,95,128,529
173568171,154,174,121,356,92,130,585
173601504,155,164,120,292,116,132,565
173634837,156,168,125,269,105,134,630
173668170,156,162,122,232,94,137,767
173701503,157,176,128,243,97,139,1044
173734836,155,173,125,217,110,139,937
173768169,155,166,122,270,105,136,978
173801502,166,220,132,358,115,137,1346
173834835,161,194,124,553,107,141,1209
173868168,159,176,123,429,103,134,1187
173901501,167,214,129,557,97,133,1454
173934834,170,213,139,454,95,133,1233
173968167,163,188,133,835,100,140,950
174001500,161,201,129,540,124,140,1125
174034833,165,190,127,495,108,145,1475
174068166,162,186,127,482,106,136,1435
174101499,182,231,149,544,105,152,2018
174134832,174,218,149,395,98,139,1570
174168165,176,221,153,385,97,144,1661
174201498,170,196,139,562,99,149,1468
174234831,169,209,137,418,112,146,1658
174268164,164,191,131,381,122,141,1408
174301497,166,201,131,296,109,146,1468
174334830,174,189,136,315,106,139,1600
174368163,167,187,137,376,95,155,1254
174401496,169,185,134,292,118,140,1259
174434829,163,177,128,295,107,147,1106
174468162,158,167,123,273,131,140,1106
174501495,158,168,128,242,130,155,1035
174534828,164,171,124,237,109,140,1085
174568161,159,165,125,229,98,143,874
174601494,159,165,120,233,107,141,1032
174634827,156,157,119,230,98,133,734
174668160,157,160,119,239,118,132,817
174701493,157,161,119,225,102,135,803
174734826,169,174,124,225,99,130,1014
174768159,163,177,126,247,99,138,898
174801492,160,172,123,239,136,133,856
174834825,173,188,134,237,112,141,1108
174868158,164,175,128,240,98,137,892
174901491,161,166,124,245,104,139,1014
174934824,160,169,126,275,95,137,950
174968157,160,163,121,284,95,134,821
175001490,156,172,123,362,103,132,821
175034823,155,164,121,335,97,138,798
175068156,155,166,120,314,89,131,694
175101489,156,179,122,266,93,139,839
175134822,156,170,122,275,96,130,632
175168155,160,166,124,320,90,136,775
175201488,158,170,124,303,97,134,926
175234821,156,160,121,436,98,129,744
175268154,176,184,134,414,89,139,1375
175301487,169,201,135,367,131,135,1149
175334820,166,178,130,358,106,137,1100
175368153,165,192,142,390,128,138,991
175401486,160,177,133,350,127,134,840
175434819,160,180,131,309,107,138,1020
175468152,157,167,133,338,101,140,1167
175501485,161,172,126,313,110,135,1178
175534818,166,166,127,321,108,135,1093
175568151,167,175,132,368,112,134,1348
175601484,164,168,125,379,98,135,1132
175634817,162,194,128,338,93,133,1107
175668150,159,182,126,309,91,134,946
175701483,159,181,134,290,91,131,1134
175734816,158,179,133,386,89,137,1027
175768149,162,193,138,354,90,135,1310
175801482,178,211,153,392,106,152,2189
175834815,170,185,136,335,110,139,1923
175868148,165,204,143,340,105,143,1564
175901481,178,214,144,348,102,142,1651
175934814,166,185,134,367,101,139,1490
175968147,172,184,134,322,136,135,1465
176001480,167,173,125,299,114,146,1376
176034813,161,166,123,287,101,136,1147
176068146,162,174,130,266,100,139,1234
176101479,161,176,127,258,101,133,1148
176134812,158,179,128,276,94,129,1044
176168145,163,194,130,279,97,138,1095
176201478,160,173,121,270,90,134,890
176234811,193,210,147,288,94,142,1499
176268144,175,184,135,300,101,152,1504
176301477,165,173,126,320,99,138,1075
176334810,179,188,131,278,105,138,1234
176368143,167,178,128,248,101,133,1042
176401476,174,188,137,269,95,145,1229
176434809,169,186,135,283,93,148,1178
176468142,164,176,131,284,122,138,1026
176501475,171,183,137,311,113,138,1464
176534808,164,180,128,272,103,135,1057
176568141,162,181,129,244,120,131,1260
176601474,160,176,130,245,110,134,1281
176634807,168,179,133,267,103,134,1401
176668140,164,167,125,257,101,137,1405
176701473,165,170,127,238,94,136,1196
176734806,163,174,130,250,95,134,1197
176768139,160,166,121,280,93,133,1062
176801472,160,164,121,633,159,134,1058
176834805,158,182,123,569,120,129,1054
176868138,160,176,122,620,102,134,1291
176901471,160,174,124,501,114,131,1034
176934804,162,176,133,630,113,140,1081
176968137,161,172,130,540,103,132,1010
177001470,160,170,131,462,94,133,1070
177034803,161,187,138,577,102,134,1003
177068136,164,196,146,674,115,134,917
177101469,162,180,137,742,131,132,954
177134802,158,172,128,489,119,130,715
177168135,160,172,129,476,103,139,950
177201468,159,172,128,482,122,136,798
177234801,158,172,126,499,105,133,788
177268134,166,182,126,517,148,137,872
177301467,163,176,122,407,115,132,803
177334800,160,179,126,402,108,131,727
177368133,159,164,123,316,97,133,552
177401466,156,157,121,300,94,130,533
177434799,156,158,121,286,97,133,441
177468132,155,153,118,240,90,134,341
177501465,155,164,123,243,100,131,346
177534798,155,162,121,263,94,132,297
177568131,156,157,119,243,92,130,263
177601464,155,164,120,309,90,131,248
177634797,155,171,121,256,88,132,246
177668130,155,168,120,239,110,130,263
177701463,155,158,118,222,96,134,294
177734796,155,156,118,239,91,128,297
177768129,155,156,115,227,97,132,281
177801462,155,152,117,213,92,130,289
177834795,156,150,116,209,98,126,277
177868128,155,148,118,201,93,138,283
177901461,156,176,121,212,90,130,323
177934794,159,210,182,208,89,131,284
177968127,157,244,234,214,94,132,268
178001460,165,203,202,220,93,130,297
178034793,162,176,253,242,100,129,298
178068126,159,184,211,217,93,127,287
178101459,158,260,189,226,90,124,261
178134792,157,213,203,210,87,126,244
178168125,155,219,192,231,86,130,234
178201458,162,189,179,206,86,126,243
178234791,160,276,208,195,155,126,233
178268124,162,218,182,193,467,128,221
178301457,177,251,192,188,443,129,228
178334790,168,277,243,187,408,127,225
178368123,162,221,179,186,497,137,224
178401456,179,339,225,187,385,131,221
178434789,167,244,167,186,311,136,221
178468122,162,274,204,189,316,133,221
178501455,164,239,158,186,235,130,221
178534788,175,237,277,189,316,133,220
178568121,167,201,192,186,199,129,220
178601454,164,376,210,187,239,127,219
178634787,162,271,161,187,257,128,219
178668120,202,261,147,194,190,128,217
178701453,179,228,154,190,147,130,217
178734786,170,203,182,197,194,129,216
178768119,164,209,148,192,154,130,216
178801452,162,240,133,194,140,131,215
178834785,157,211,124,200,345,136,215
178868118,157,209,152,193,227,132,216
178901451,164,207,145,190,155,127,216
178934784,161,182,129,200,307,126,215
178968117,159,233,133,196,205,125,216
179001450,156,225,170,196,176,132,215
179034783,158,197,157,189,146,128,215
179068116,157,209,140,191,142,124,214
179101449,158,199,163,188,308,128,213
179134782,163,238,142,186,252,127,214
179168115,171,226,167,185,271,127,214
179201448,165,264,190,185,425,133,214
179234781,170,240,236,184,322,130,215
179268114,165,317,225,185,239,126,215
179301447,193,264,179,185,237,125,216
179334780,174,331,248,184,182,124,215
179368113,184,329,247,184,170,127,216
179401446,175,381,253,183,157,125,216
179434779,186,279,183,196,126,125,215
179468112,176,485,219,190,135,123,216
179501445,174,342,193,187,110,124,215
179534778,167,344,244,185,112,123,215
179568111,163,250,176,186,125,123,217
179601444,161,234,194,186,273,130,216
179634777,158,212,182,185,199,125,215
179668110,158,283,151,187,172,127,215
179701443,161,246,213,186,176,125,215
179734776,163,278,171,185,155,124,215
179768109,172,251,147,187,132,122,215
179801442,165,227,181,193,113,122,215
179834775,178,300,179,199,297,124,216
179868108,167,225,173,194,197,122,216
179901441,170,225,208,187,152,123,216
179934774,164,196,185,193,123,122,214
179968107,160,281,203,186,164,123,217
180001440,159,228,159,188,152,123,216
180034773,163,272,144,187,213,123,216
180068106,157,261,182,189,167,122,215
180101439,162,240,151,187,189,122,216
180134772,165,336,167,187,145,122,215
180168105,160,260,218,185,236,123,214
180201438,177,273,182,187,259,124,216
180234771,167,255,182,185,212,122,217
180268104,181,246,310,184,180,126,215
180301437,168,298,214,186,145,122,215
180334770,183,267,230,185,165,123,216
180368103,188,309,258,189,128,123,215
180401436,214,294,290,195,107,123,216
180434769,185,351,279,189,184,123,215
180468102,187,390,235,211,132,122,216
180501435,174,437,214,197,185,122,216
180534768,183,305,206,189,163,122,217
180568101,168,280,159,195,271,124,215
180601434,172,266,300,189,192,121,215
180634767,181,351,233,187,268,124,215
180668100,170,267,173,198,217,124,215
180701433,162,266,279,192,268,125,215
180734766,158,221,197,188,186,123,215
180768099,158,287,159,210,264,124,215
180801432,157,228,175,197,187,125,215
180834765,155,231,166,191,197,123,216
180868098,156,289,164,187,186,124,216
180901431,155,244,165,189,143,124,216
180934764,158,242,188,187,131,126,215
180968097,159,287,164,188,117,123,216
181001430,159,249,187,185,117,122,216
181034763,162,339,188,187,103,124,214
181068096,165,426,247,186,125,123,216
181101429,161,414,185,215,117,121,215
181134762,179,426,227,199,101,123,216
181168095,167,311,182,195,100,122,215
181201428,163,443,288,188,93,122,212
181234761,163,325,228,202,124,122,213
181268094,188,340,313,193,117,124,208
181301427,172,323,248,191,100,124,213
181334760,166,340,199,190,170,123,212
181368093,162,333,204,188,192,123,214
181401426,164,272,217,189,136,123,215
181434759,184,427,232,186,146,122,213
181468092,171,292,190,196,124,125,214
181501425,212,331,227,201,356,125,209
181534758,191,299,221,225,273,124,213
181568091,191,292,197,222,334,127,198
181601424,180,225,183,203,309,127,206
181634757,294,365,196,194,349,128,197
181668090,224,303,175,229,251,127,209
181701423,204,262,201,222,429,131,198
181734756,192,210,188,217,314,132,215
181768089,251,298,235,234,197,128,238
181801422,201,250,174,476,149,126,418
181834755,182,283,217,470,119,125,390
181868088,166,227,230,901,110,131,386
181901421,217,339,254,553,265,131,338
181934754,284,351,692,864,232,147,356
181968087,584,1052,1242,543,216,162,320
182001420,947,2035,1863,975,390,190,292
182034753,1254,1970,1542,867,674,168,257
182068086,1256,3068,2040,2115,871,390,257
182101419,1575,2885,1954,2490,753,290,248
182134752,956,1880,1183,3571,794,235,238
182168085,586,1191,692,3684,528,179,290
182201418,360,707,435,2844,341,149,261
182234751,252,425,278,2669,210,132,237
182268084,202,433,257,1403,156,128,235
182301417,183,311,341,797,128,125,242
182334750,282,382,317,500,384,126,231
182368083,215,260,212,790,240,151,226
182401416,184,202,164,978,251,139,281
182434749,170,186,225,1944,409,144,294
182468082,171,209,265,1195,408,142,392
182501415,300,439,319,1151,332,146,357
182534748,404,742,727,1300,583,180,334
182568081,753,1418,980,1108,488,166,302
182601414,822,967,889,1363,285,149,267
182634747,1312,3690,2295,1098,335,278,340
182668080,1878,2596,2144,795,553,587,369
182701413,2117,3388,2058,1317,361,348,316
182734746,1705,3345,2370,1389,683,295,281
182768079,2779,3691,2325,2763,772,292,281
182801412,1707,2739,1388,3685,779,289,380
182834745,1547,2901,1870,3685,886,283,405
182868078,981,1698,1117,3686,584,202,333
182901411,548,980,618,3591,327,161,390
182934744,361,830,595,1808,227,139,396
182968077,389,842,918,1034,267,145,382
183001410,312,588,884,660,298,145,354
183034743,231,363,485,1306,184,137,359
183068076,190,258,293,800,133,130,320
183101409,172,258,203,1353,189,137,309
183134742,191,285,290,1898,202,141,325
183168075,227,375,798,1775,279,166,481
183201408,665,1114,827,1831,325,164,498
183234741,510,1430,673,2003,262,150,394
183268074,713,1576,1480,2082,253,157,353
183301407,597,1276,1084,2483,559,199,297
183334740,803,2112,1736,1443,430,219,286
183368073,2337,3158,1977,1195,590,299,275
183401406,2056,3169,1686,1286,898,301,248
183434739,2163,3691,1877,1923,791,315,264
183468072,2198,3692,2236,1880,808,243,345
183501405,1482,3218,1801,3681,566,187,334
183534738,1044,2091,1597,3683,338,164,309
183568071,688,1534,1078,3682,208,143,312
183601404,457,1049,688,2929,144,131,272
183634737,299,611,536,1862,137,133,269
183668070,348,742,954,988,121,133,271
183701403,256,485,588,710,134,127,288
183734736,226,338,549,708,133,127,280
183768069,190,246,322,849,150,123,256
183801402,172,203,262,1664,301,123,247
183834735,194,311,332,2437,199,124,272
183868068,241,454,317,2052,410,169,276
183901401,938,1427,1143,1665,384,153,280
183934734,716,1084,1245,1953,337,157,278
183968067,654,998,1272,1636,344,146,260
184001400,681,1461,982,958,400,163,246
184034733,1060,2265,2138,691,324,211,235
184068066,707,1444,1152,529,296,171,228
184101399,790,1468,1384,568,471,150,232
184134732,731,1304,1072,466,785,163,226
184168065,512,992,933,387,533,156,223
184201398,509,1048,1028,440,534,144,219
184234731,460,825,856,436,394,133,217
184268064,355,791,718,430,834,165,216
184301397,388,804,819,509,775,179,219
184334730,297,859,557,544,1172,237,210
184368063,266,1124,508,522,675,190,212
184401396,277,1021,687,355,728,229,212
184434729,310,679,558,350,691,239,213
184468062,330,797,564,374,700,216,214
184501395,324,516,366,338,506,195,252
184534728,269,515,268,282,362,169,237
184568061,280,386,219,323,451,177,230
184601394,216,280,250,352,299,151,226
184634727,203,301,243,283,324,143,223
184668060,191,362,208,242,327,146,219
184701393,209,332,186,251,426,157,229
184734726,254,352,251,246,341,149,225
184768059,201,244,179,226,329,144,221
184801392,200,355,213,215,431,169,219
184834725,177,248,163,212,321,148,217
184868058,182,238,247,233,330,136,219
184901391,172,230,211,218,431,156,216
184934724,242,351,316,207,305,139,216
184968057,210,273,215,199,315,143,216
185001390,281,324,223,194,234,132,215
185034723,216,355,172,184,203,129,219
185068056,187,289,266,187,161,125,216
185101389,215,340,225,294,205,133,216
185134722,195,306,239,239,144,129,216
185168055,188,321,220,210,159,123,215
185201388,171,267,176,201,121,124,216
185234721,230,432,396,195,131,122,215
185268054,212,384,264,211,106,122,216
185301387,201,320,278,224,95,122,217
185334720,182,311,226,205,92,121,226
185368053,167,226,167,289,86,123,232
185401386,162,184,139,260,88,121,227
185434719,156,165,129,311,85,124,375
185468052,157,157,122,280,90,125,313
185501385,157,156,121,236,216,126,436
185534718,154,158,120,215,187,125,367
185568051,156,153,120,547,134,129,485
185601384,154,152,119,405,108,127,400
185634717,156,150,119,490,95,125,347
185668050,169,203,211,589,106,130,306
185701383,196,315,306,577,353,133,263
185734716,349,694,596,524,988,192,248
185768049,268,452,368,582,584,154,236
185801382,786,967,1241,594,897,155,241
185834715,812,575,746,978,834,163,225
185868048,754,686,939,758,963,184,221
185901381,510,535,674,808,717,172,219
185934714,676,697,632,612,621,161,219
185968047,407,421,365,548,354,140,516
186001380,276,282,232,771,213,132,516
186034713,212,213,179,488,149,131,746
186068046,182,181,146,377,130,139,687
186101379,168,162,130,360,158,144,549
186134712,161,154,123,367,147,138,449
186168045,158,154,119,279,495,155,375
186201378,156,168,119,237,414,152,433
186234711,155,160,118,391,246,139,410
186268044,155,152,117,408,183,135,354
186301377,155,167,155,595,140,130,296
186334710,156,198,192,544,290,130,265
186368043,187,332,202,711,304,129,271
186401376,225,528,424,690,840,183,274
186434709,357,502,498,899,757,156,250
186468042,308,438,434,2005,852,169,235
186501375,555,1131,1110,1570,840,163,235
186534708,380,693,642,1456,561,161,229
186568041,569,928,753,1190,429,151,220
186601374,355,550,426,808,285,139,571
186634707,250,353,266,774,179,130,508
186668040,201,252,211,485,136,127,947
186701373,178,200,164,427,116,137,857
186734706,167,173,139,517,108,139,679
186768039,161,161,128,541,118,134,554
186801372,158,160,121,419,378,139,451
186834705,158,174,120,342,229,132,522
186868038,157,166,118,315,279,150,401
186901371,154,160,127,260,305,147,898
186934704,156,154,120,279,190,142,642
186968037,155,152,119,830,146,131,603
187001370,184,321,227,1001,223,135,518
187034703,262,357,291,1060,460,147,443
187068036,370,610,370,825,384,135,368
187101369,315,644,324,931,326,139,589
187134702,333,744,712,968,453,153,474
187168035,378,819,596,1276,655,182,482
187201368,422,930,637,1324,484,167,385
187234701,283,552,374,1296,385,153,383
187268034,217,340,236,1045,260,135,404
187301367,187,240,183,597,169,129,722
187334700,168,193,149,407,131,126,597
187368033,162,169,137,355,112,142,601
187401366,159,157,130,382,101,141,514
187434699,156,153,123,403,93,134,441
187468032,155,155,120,346,111,136,355
187501365,155,158,119,351,167,148,520
187534698,156,153,120,319,135,145,587
187568031,154,150,119,292,143,145,575
187601364,155,163,140,427,151,138,518
187634697,156,163,170,934,203,131,619
187668030,163,339,206,1403,284,136,527
187701363,213,532,413,1187,593,138,420
187734696,224,511,325,875,557,133,333
187768029,237,412,408,1007,762,134,286
187801362,403,518,594,1078,625,136,261
187834695,313,470,672,1009,1039,204,242
187868028,405,504,719,1060,681,194,233
187901361,275,317,399,1030,393,165,292
187934694,212,229,249,854,232,142,333
187968027,183,185,182,503,154,129,503
188001360,168,167,166,451,125,129,683
188034693,162,157,150,503,107,134,618
188068026,157,152,133,580,100,128,553
188101359,158,150,123,464,95,129,475
188134692,154,156,126,620,99,131,587
188168025,157,154,120,590,104,136,477
188201358,160,152,123,816,161,133,588
188234691,155,149,120,567,233,132,452
188268024,156,150,119,811,175,129,360
188301357,211,246,235,881,189,126,299
188334690,189,302,318,850,210,127,377
188368023,212,368,406,1531,345,139,410
188401356,247,414,517,1243,697,147,339
188434689,249,535,401,1411,515,143,286
188468022,231,477,349,2486,632,154,260
188501355,225,451,461,1664,679,162,243
188534688,201,378,346,1636,529,146,240
188568021,193,329,276,1364,306,138,321
188601354,173,234,189,803,190,130,295
188634687,163,193,161,475,135,124,734
188668020,160,171,138,436,111,125,689
188701353,154,157,129,410,98,125,538
188734686,156,153,124,421,132,138,490
188768019,157,153,124,630,115,131,545
188801352,156,158,118,551,101,136,430
188834685,156,153,123,548,176,138,684
188868018,154,151,122,393,149,159,538
188901351,154,152,124,943,158,141,864
188934684,156,161,184,1062,276,140,614
188968017,156,245,255,1229,205,133,468
189001350,310,691,718,963,329,141,428
189034683,379,746,690,797,364,144,356
189068016,394,567,762,1185,268,133,301
189101349,351,869,632,1472,715,139,265
189134682,430,743,816,1959,832,166,243
189168015,723,708,581,1730,798,162,234
189201348,424,414,334,1363,467,147,228
189234681,284,277,218,1566,297,133,424
189268014,215,212,178,984,187,127,687
189301347,183,178,147,575,143,125,613
189334680,169,164,136,518,140,127,641
189368013,162,155,125,493,112,131,535
189401346,158,152,128,596,118,129,429
189434679,156,151,122,453,108,129,379
189468012,155,164,119,313,104,135,298
189501345,157,156,116,269,192,139,329
189534678,155,151,118,250,138,138,297
189568011,156,149,120,301,121,130,336
189601344,154,200,186,457,104,126,429
189634677,185,406,215,602,182,124,373
189668010,313,477,388,1397,693,135,461
189701343,403,974,758,1262,555,142,364
189734676,558,888,1239,1441,750,143,306
189768009,438,1009,952,968,708,162,271
189801342,473,710,763,1404,804,193,248
189834675,307,417,419,1003,481,183,236
189868008,228,280,259,604,303,151,275
189901341,189,228,184,417,204,138,377
189934674,171,190,150,406,143,136,602
189968007,163,168,136,457,116,127,675
190001340,161,163,132,503,118,136,846
190034673,159,155,132,740,136,134,752
190068006,157,179,129,840,143,137,681
190101339,155,170,123,552,230,164,707
190134672,156,168,124,796,227,163,915
190168005,155,157,144,479,151,139,641
190201338,174,183,340,445,120,131,476
190234671,164,176,241,739,102,128,376
190268004,246,417,342,536,117,132,331
190301337,269,412,604,1152,223,128,471
190334670,364,677,738,791,609,130,405
190368003,401,944,623,1451,517,132,327
190401336,413,925,511,1325,611,141,282
190434669,476,1046,685,1383,722,179,262
190468002,352,607,510,912,645,201,332
190501335,248,402,301,1712,365,164,338
190534668,200,274,214,1016,218,142,621
190568001,176,209,164,616,155,130,660
190601334,165,177,140,386,125,132,630
190634667,161,164,131,417,104,131,693
190668000,158,157,125,388,97,129,700
190701333,157,152,122,337,96,125,662
190734666,157,152,123,314,90,125,632
190767999,156,154,119,458,91,131,537
190801332,156,152,121,412,96,139,582
190834665,155,150,122,384,104,144,587
190867998,154,164,119,369,187,138,504
190901331,155,236,225,315,184,134,390
190934664,170,267,176,336,207,143,676
190967997,250,482,652,339,149,133,562
191001330,285,669,468,394,536,129,450
191034663,231,554,350,316,419,126,389
191067996,242,617,325,314,264,126,339
191101329,303,504,232,282,223,126,317
191134662,303,605,434,235,365,129,290
191167995,269,412,295,236,287,135,297
191201328,479,644,341,248,209,132,302
191234661,318,425,241,241,416,143,350
191267994,311,646,352,242,359,141,316
191301327,283,582,283,262,320,139,416
191334660,267,579,375,232,206,131,337
191367993,219,582,267,232,143,129,293
191401326,238,557,254,231,111,126,263
191434659,236,536,270,228,99,131,330
191467992,237,458,261,218,90,127,283
191501325,280,443,247,203,87,126,265
191534658,251,572,271,203,88,124,256
191567991,212,476,204,198,86,123,248
191601324,232,427,197,198,86,124,234
191634657,213,541,217,201,86,124,283
191667990,264,449,183,205,84,123,262
191701323,219,498,186,209,86,121,267
191734656,208,471,241,201,88,124,261
191767989,183,414,231,205,86,123,311
191801322,169,358,174,198,86,124,314
191834655,184,339,164,205,84,123,375
191867988,169,297,282,201,86,126,317
191901321,218,365,216,194,86,124,278
191934654,197,306,203,206,85,122,277
191967987,196,359,256,202,86,123,258
192001320,174,349,187,209,84,123,248
192034653,177,313,183,197,84,122,232
192067986,184,466,165,205,84,122,241
192101319,202,407,243,197,86,123,233
192134652,175,390,190,210,86,123,241
192167985,179,361,194,201,87,123,229
192201318,169,394,235,196,86,123,235
192234651,189,466,205,194,84,123,230
192267984,176,340,187,192,89,125,236
192301317,178,363,166,193,84,124,228
192334650,171,402,287,192,85,125,228
192367983,170,323,210,191,84,122,247
192401316,166,409,172,191,83,123,236
192434649,172,403,189,200,84,122,230
192467982,200,480,199,194,85,123,225
192501315,179,482,216,189,84,121,222
192534648,178,361,181,196,84,122,221
192567981,174,363,180,195,84,121,229
192601314,172,342,207,210,86,121,224
192634647,166,313,214,198,85,122,222
192667980,165,391,214,193,82,121,220
192701313,162,369,219,203,84,123,225
192734646,198,337,273,194,83,123,218
192767979,178,419,192,191,85,123,219
192801312,183,363,203,188,84,122,219
192834645,195,420,215,191,88,122,217
192867978,192,409,193,186,86,124,216
192901311,193,344,238,193,86,124,216
192934644,174,312,232,188,87,123,215
192967977,189,454,258,191,86,123,214
193001310,181,420,213,187,85,124,216
193034643,179,394,244,194,83,124,214
193067976,170,367,221,199,86,124,216
193101309,163,372,182,193,84,124,217
193134642,169,332,231,206,84,123,216
193167975,183,353,179,196,83,123,213
193201308,178,340,151,194,85,124,213
193234641,168,285,192,189,86,123,217
193267974,173,438,249,188,84,122,217
193301307,164,321,197,187,85,122,215
193334640,165,298,190,193,85,123,213
193367973,162,380,219,197,85,122,229
193401306,161,346,207,192,86,128,227
193434639,169,270,177,199,84,126,223
193467972,162,232,149,196,86,126,222
193501305,164,361,287,191,85,124,216
193534638,164,315,204,195,84,124,219
193567971,163,263,173,194,84,122,218
193601304,182,371,271,192,86,123,216
193634637,182,289,203,193,83,122,215
193667970,179,372,166,201,85,124,213
193701303,167,363,184,200,84,123,214
193734636,161,315,186,198,85,124,215
193767969,162,252,175,201,84,123,230
193801302,162,294,210,194,84,123,225
193834635,160,381,173,201,86,123,217
193867968,158,343,199,199,84,123,214
193901301,158,336,211,197,85,124,209
193934634,159,303,167,199,84,122,212
193967967,159,346,140,201,85,124,212
194001300,161,395,233,205,86,124,211
194034633,157,280,182,198,83,123,214
194067966,164,274,166,190,85,125,214
194101299,159,208,140,199,87,123,222
194134632,158,179,129,200,84,123,227
194167965,163,169,151,193,85,124,223
194201298,156,158,133,187,85,121,219
194234631,154,168,123,186,86,124,218
194267964,161,167,124,197,85,123,217
194301297,156,160,123,196,84,120,217
194334630,157,170,119,193,84,122,216
194367963,161,200,122,190,84,123,215
194401296,156,176,120,199,85,123,217
194434629,154,171,117,191,86,123,215
194467962,165,201,121,187,85,124,215
194501295,161,179,120,192,85,124,214
194534628,160,186,117,191,86,125,219
194567961,156,166,119,187,86,125,216
194601294,156,226,121,189,85,123,217
194634627,156,191,121,188,85,124,216
194667960,157,232,123,188,83,122,215
194701293,157,200,119,195,86,123,215
194734626,156,186,119,195,86,124,211
194767959,156,183,120,191,87,126,214
194801292,155,219,119,189,85,124,214
194834625,159,190,148,195,86,124,216
194867958,158,199,137,190,84,122,215
194901291,157,177,131,188,83,123,214
194934624,156,204,164,187,84,122,214
194967957,157,202,163,185,84,122,216
195001290,158,205,154,187,83,122,214
195034623,160,225,166,186,85,123,216
195067956,157,233,140,189,86,121,216
195101289,159,259,189,188,87,128,216
195134622,157,219,152,186,86,124,216
195167955,163,277,166,186,85,123,216
195201288,162,314,168,187,84,122,216
195234621,173,336,154,185,85,123,216
195267954,166,326,172,186,85,121,216
195301287,161,287,169,185,85,122,216
195334620,170,277,216,187,84,122,215
195367953,165,333,165,185,84,122,216
195401286,179,292,250,186,85,122,215
195434619,167,285,179,185,85,122,217
195467952,176,327,194,185,85,124,216
195501285,166,332,218,184,84,122,215
195534618,165,313,211,188,84,123,216
195567951,165,361,179,184,86,123,215
195601284,170,282,171,182,85,119,216
195634617,172,314,176,184,86,121,216
195667950,167,304,159,185,86,123,215
195701283,172,386,230,185,83,122,216
195734616,170,304,195,184,87,119,216
195767949,171,323,184,183,83,122,216
195801282,169,359,259,183,82,121,217
195834615,212,368,258,184,84,122,216
195867948,186,423,246,184,85,122,217
195901281,186,352,241,185,84,121,218
195934614,175,366,229,186,80,121,216
195967947,166,288,173,185,84,121,216
196001280,217,374,221,186,85,121,216
196034613,186,297,166,185,83,122,216
196067946,208,373,216,186,85,123,216
196101279,180,366,199,186,83,121,216
196134612,183,287,182,185,83,121,216
196167945,172,301,184,185,85,122,214
196201278,168,356,210,187,87,123,216
196234611,166,276,168,186,85,122,216
196267944,166,323,156,184,84,123,215
196301277,159,303,202,186,84,124,216
196334610,158,311,207,185,85,122,215
196367943,199,393,231,184,85,123,215
196401276,184,394,175,185,84,123,216
196434609,181,357,214,186,83,122,217
196467942,169,329,188,185,84,121,216
196501275,171,348,273,184,83,122,215
196534608,170,416,276,184,83,121,217
196567941,198,419,241,185,85,123,216
196601274,178,403,217,185,84,123,218
196634607,199,348,233,185,85,122,214
196667940,205,472,186,186,86,121,216
196701273,212,371,237,187,86,123,216
196734606,202,368,248,185,86,120,216
196767939,178,284,218,184,84,122,215
196801272,191,415,255,185,85,121,216
196834605,189,322,265,185,83,123,216
196867938,203,402,276,196,85,121,216
196901271,188,357,256,193,84,123,215
196934604,196,417,256,192,84,122,215
196967937,179,335,189,187,84,122,215
197001270,225,433,230,187,84,122,216
197034603,196,309,172,186,85,123,216
197067936,213,461,265,185,86,123,217
197101269,218,336,244,185,85,121,216
197134602,212,511,221,185,84,125,216
197167935,192,360,259,183,84,123,215
197201268,181,279,240,183,84,123,216
197234601,179,451,177,186,86,123,216
197267934,168,359,193,184,85,121,215
197301267,163,361,280,184,85,121,216
197334600,162,326,199,184,83,124,217
197367933,159,294,204,185,83,124,215
197401266,156,241,189,191,82,123,216
197434599,157,295,207,188,85,122,216
197467932,160,289,225,186,84,123,216
197501265,163,401,195,185,84,121,215
197534598,169,362,158,187,84,121,215
197567931,163,325,241,185,83,122,215
197601264,168,348,178,187,82,122,216
197634597,166,405,167,186,85,124,215
197667930,200,323,177,185,85,123,215
197701263,179,261,202,187,83,122,216
197734596,167,401,232,188,85,123,215
197767929,163,300,189,187,84,122,216
