time,EMG1,EMG2,EMG3,EMG4,EMG5,EMG6,EMG7
607426115,154,148,116,226,117,130,361
607427115,155,151,116,228,116,130,358
607428115,157,152,116,226,116,130,356
607429115,155,149,116,225,115,130,355
607430115,155,149,116,225,115,128,353
607431115,155,149,120,223,114,130,352
607432115,156,149,116,223,113,132,352
607433115,155,148,116,224,112,127,351
607434115,155,149,116,225,112,130,346
607435115,155,148,116,225,112,129,345
607436115,155,149,116,225,112,130,343
607437115,155,149,116,229,113,129,341
607438115,158,148,115,228,112,128,341
607439115,155,149,116,227,111,129,338
607440115,154,149,116,227,112,129,335
607441115,154,149,117,226,111,129,334
607442115,155,149,116,226,109,128,333
607443115,155,149,116,233,109,131,332
607444115,154,149,117,237,108,129,329
607445115,154,148,116,243,108,128,329
607446115,155,148,116,246,107,128,327
607447115,155,149,116,245,106,128,325
607448115,155,149,116,244,106,129,324
607449115,154,149,116,246,106,130,322
607450115,155,149,116,252,108,131,321
607451115,153,148,117,258,107,131,320
607452115,153,149,116,263,107,129,318
607453115,154,147,116,260,107,132,317
607454115,155,149,116,259,107,133,316
607455115,155,149,116,260,106,134,315
607456115,155,149,118,255,105,135,313
607457115,155,149,116,253,103,135,311
607458115,155,149,116,251,104,134,310
607459115,155,148,116,249,105,133,309
607460115,155,149,115,249,104,135,310
607461115,158,148,112,248,105,133,308
607462115,155,149,117,247,104,133,309
607463115,155,149,117,245,103,133,310
607464115,154,147,115,243,103,133,310
607465115,152,148,116,243,102,133,321
607466115,154,148,116,242,102,133,333
607467115,155,149,116,241,104,132,337
607468115,155,148,116,239,106,133,336
607469115,154,148,117,239,109,131,333
607470115,154,148,116,238,113,132,334
607471115,154,148,116,239,112,131,336
607472115,157,148,116,235,112,130,334
607473115,154,149,116,235,112,131,332
607474115,154,150,115,233,107,131,332
607475115,154,151,116,234,109,132,331
607476115,155,151,116,238,116,131,329
607477115,154,152,112,243,122,131,328
607478115,155,152,116,244,130,131,327
607479115,155,152,116,239,140,130,326
607480115,156,152,117,244,153,130,324
607481115,156,152,117,243,162,130,323
607482115,155,150,116,242,162,129,322
607483115,155,151,116,241,165,130,321
607484115,155,151,118,242,176,130,318
607485115,154,151,115,241,186,130,317
607486115,154,151,115,245,196,131,315
607487115,155,151,118,250,201,132,314
607488115,155,151,116,257,202,135,313
607489115,155,151,116,257,203,135,312
607490115,155,150,116,252,207,135,310
607491115,155,150,117,253,211,134,309
607492115,155,150,116,251,217,136,308
607493115,155,151,116,251,225,134,303
607494115,155,150,116,249,229,134,305
607495115,154,150,116,248,230,134,305
607496115,155,150,116,250,229,134,304
607497115,155,151,116,252,228,133,302
607498115,152,151,116,251,226,133,300
607499115,156,150,113,249,223,132,299
607500115,156,151,116,247,219,133,299
607501115,154,151,116,247,217,132,297
607502115,155,150,115,248,214,132,296
607503115,155,150,116,247,211,132,295
607504115,154,145,116,248,209,132,294
607505115,156,150,116,247,205,132,294
607506115,155,150,116,246,203,135,293
607507115,155,150,116,244,200,131,291
607508115,155,150,116,244,197,131,291
607509115,154,150,116,244,196,130,290
607510115,156,150,116,244,193,131,290
607511115,155,151,116,246,190,131,289
607512115,155,150,116,246,188,130,288
607513115,154,150,116,245,186,130,284
607514115,155,150,116,245,187,129,285
607515115,155,150,115,243,188,130,284
607516115,156,150,116,243,195,130,283
607517115,155,150,117,241,204,129,283
607518115,154,150,117,241,204,130,282
607519115,155,151,118,244,207,128,281
607520115,155,151,116,248,210,128,280
607521115,155,150,117,250,206,129,278
607522115,155,150,116,248,208,128,278
607523115,154,150,116,247,213,128,278
607524115,156,150,116,246,213,127,277
607525115,155,150,118,244,212,128,277
607526115,155,150,116,246,210,128,276
607527115,155,150,117,242,207,127,278
607528115,155,149,116,240,200,128,274
607529115,156,149,116,240,202,128,274
607530115,154,150,116,238,199,125,272
607531115,155,151,116,238,197,127,273
607532115,156,150,116,239,196,126,272
607533115,155,149,115,241,193,126,271
607534115,154,150,116,238,192,127,270
607535115,154,150,116,244,189,127,270
607536115,155,150,116,243,186,127,268
607537115,155,149,116,242,185,128,268
607538115,151,153,115,240,182,127,267
607539115,154,149,116,240,180,127,272
607540115,155,149,115,242,178,126,276
607541115,154,149,115,242,173,126,280
607542115,155,149,116,244,173,126,280
607543115,156,152,116,246,171,126,279
607544115,156,150,115,245,169,127,278
607545115,153,149,116,243,167,127,281
607546115,156,151,116,242,168,126,291
607547115,155,149,116,241,165,126,298
607548115,155,149,116,240,163,125,297
607549115,155,149,116,240,162,125,298
607550115,155,149,116,239,159,126,297
607551115,155,149,116,241,157,126,300
607552115,155,149,115,236,155,127,310
607553115,152,149,118,235,155,125,316
607554115,155,149,116,237,153,126,314
607555115,155,150,116,239,154,124,314
607556115,157,148,112,241,154,124,314
607557115,155,149,120,244,162,125,319
607558115,155,150,116,248,164,125,324
607559115,155,150,117,254,162,125,324
607560115,155,149,116,255,161,124,322
607561115,157,150,116,260,158,124,321
607562115,154,149,116,266,157,124,321
607563115,155,151,116,267,153,123,323
607564115,154,150,116,264,153,124,317
607565115,154,150,116,267,153,124,315
607566115,155,150,116,269,153,123,315
607567115,155,149,116,269,159,123,313
607568115,155,149,115,267,166,123,311
607569115,154,149,117,265,176,123,310
607570115,155,150,116,264,188,123,309
607571115,155,150,116,264,188,123,308
607572115,155,150,116,266,187,123,307
607573115,152,149,115,266,196,123,305
607574115,155,149,116,264,207,124,306
607575115,155,149,116,263,213,126,304
607576115,155,147,116,262,219,129,302
607577115,157,149,116,255,221,131,301
607578115,153,148,116,261,224,134,300
607579115,154,149,116,256,219,134,298
607580115,155,149,116,257,218,136,298
607581115,156,149,116,257,216,137,296
607582115,156,149,116,257,215,136,296
607583115,154,150,116,253,215,135,295
607584115,155,150,116,251,213,136,294
607585115,155,150,116,250,210,137,293
607586115,155,149,117,250,207,135,292
607587115,155,149,116,251,200,135,292
607588115,155,149,116,247,202,135,290
607589115,156,149,117,245,199,135,290
607590115,155,149,116,244,197,135,289
607591115,155,149,116,244,196,134,287
607592115,156,150,116,242,193,134,289
607593115,155,149,117,238,191,135,286
607594115,155,148,116,240,192,134,284
607595115,155,152,116,239,193,134,284
607596115,155,151,115,238,192,135,279
607597115,155,149,116,238,191,133,282
607598115,154,149,116,239,189,134,281
607599115,154,149,116,239,189,133,280
607600115,156,148,117,239,184,133,279
607601115,153,148,116,237,182,133,279
607602115,155,149,116,239,180,132,278
607603115,155,150,117,242,179,131,278
607604115,155,152,117,241,176,132,277
607605115,155,149,116,241,174,132,276
607606115,155,149,115,242,172,130,275
607607115,154,149,116,242,169,131,275
607608115,156,149,117,242,165,129,269
607609115,155,150,116,237,167,131,273
607610115,154,149,115,241,166,131,273
607611115,156,152,115,240,168,131,272
607612115,155,149,116,239,171,130,271
607613115,152,150,116,237,174,130,270
607614115,154,149,116,238,180,130,273
607615115,154,149,116,240,182,130,269
607616115,155,149,116,239,187,130,279
607617115,154,149,116,243,196,131,295
607618115,154,149,116,241,193,131,309
607619115,154,148,116,239,190,130,310
607620115,155,151,116,238,193,132,321
607621115,155,148,115,237,192,130,322
607622115,154,149,114,236,191,130,321
607623115,155,149,116,241,190,130,318
607624115,155,149,115,246,186,130,316
607625115,155,149,117,251,184,126,314
607626115,155,149,116,256,184,129,313
607627115,155,149,116,256,184,129,311
607628115,155,149,116,264,182,129,311
607629115,156,148,116,272,180,129,310
607630115,155,148,115,275,179,130,308
607631115,153,148,115,279,178,126,307
607632115,155,148,116,275,177,128,305
607633115,155,149,116,277,177,127,304
607634115,154,149,116,277,182,129,304
607635115,156,149,115,278,186,126,302
607636115,156,148,116,280,191,130,301
607637115,155,149,116,281,185,130,299
607638115,155,149,116,282,183,133,299
607639115,155,149,116,283,183,130,301
607640115,155,149,116,281,184,130,296
607641115,156,149,117,282,186,130,295
607642115,155,149,117,282,192,130,294
607643115,155,149,116,279,193,130,294
607644115,154,150,116,277,201,131,293
607645115,155,149,118,278,203,132,292
607646115,155,149,116,276,205,132,292
607647115,154,149,115,282,206,133,290
607648115,152,148,114,283,205,133,289
607649115,155,149,115,285,205,132,289
607650115,154,149,116,288,203,131,287
607651115,155,149,116,292,200,132,287
607652115,155,149,116,295,198,131,284
607653115,157,148,116,292,196,128,284
607654115,155,149,115,292,194,130,283
607655115,155,152,116,292,192,131,283
607656115,155,149,116,292,191,131,281
607657115,155,149,116,295,191,130,281
607658115,154,149,116,298,192,129,280
607659115,156,151,116,300,190,130,278
607660115,154,149,116,304,186,129,279
607661115,155,149,116,306,187,130,278
607662115,156,149,115,305,191,129,277
607663115,155,149,115,304,197,131,276
607664115,156,149,117,299,202,129,276
607665115,155,148,115,295,207,129,277
607666115,151,149,117,293,206,129,275
607667115,156,149,116,293,210,131,274
607668115,155,148,116,295,222,130,273
607669115,154,149,115,296,222,130,273
607670115,154,149,116,295,221,130,272
607671115,156,148,116,296,218,131,270
607672115,156,148,116,296,215,130,270
607673115,155,149,115,295,209,130,270
607674115,156,149,117,293,210,131,269
607675115,155,149,115,293,208,130,268
607676115,155,149,116,292,204,130,268
607677115,155,148,116,286,206,130,267
607678115,156,149,116,284,212,130,267
607679115,154,149,118,284,220,130,265
607680115,155,149,116,282,226,132,264
607681115,155,149,119,282,227,135,268
607682115,155,149,113,280,223,131,264
607683115,155,149,117,279,222,134,263
607684115,156,149,116,279,223,130,267
607685115,155,149,117,276,225,131,264
607686115,155,148,116,274,232,133,262
607687115,155,149,118,269,242,134,261
607688115,154,148,115,270,249,136,261
607689115,154,147,115,269,254,136,261
607690115,154,148,116,269,256,135,260
607691115,155,148,116,267,256,135,260
607692115,155,149,117,268,253,135,259
607693115,155,149,116,268,251,134,259
607694115,154,149,115,266,248,134,257
607695115,155,149,117,264,245,134,257
607696115,154,149,115,262,242,133,257
607697115,155,149,115,260,239,134,256
607698115,154,148,116,259,235,131,255
607699115,157,148,115,258,232,134,254
607700115,154,148,113,257,230,131,253
607701115,155,148,116,255,227,134,253
607702115,155,148,115,253,227,134,252
607703115,158,148,115,252,225,133,253
607704115,155,147,116,251,222,132,252
607705115,154,148,116,249,219,132,252
607706115,158,148,116,247,219,132,251
607707115,154,148,115,242,219,132,251
607708115,155,148,115,246,216,132,252
607709115,155,148,118,245,217,132,250
607710115,155,149,115,248,214,131,249
607711115,155,148,116,251,213,132,249
607712115,154,149,115,254,210,131,249
607713115,155,148,116,254,208,131,245
607714115,155,149,116,259,202,131,248
607715115,154,148,116,267,209,130,249
607716115,155,149,116,273,216,131,247
607717115,155,150,115,274,221,130,248
607718115,153,149,115,271,228,130,247
607719115,154,150,115,272,230,130,247
607720115,154,152,115,276,231,130,246
607721115,155,152,115,280,228,131,246
607722115,155,151,114,287,230,130,246
607723115,155,154,116,292,230,130,246
607724115,154,154,116,290,229,130,246
607725115,154,155,116,288,235,130,246
607726115,157,155,116,284,235,129,244
607727115,155,159,115,287,233,129,249
607728115,154,155,115,296,236,133,245
607729115,155,155,116,297,238,130,244
607730115,155,155,116,296,236,129,244
607731115,156,155,116,293,238,129,244
607732115,155,155,115,289,244,129,243
607733115,154,155,116,289,251,129,244
607734115,155,155,116,287,259,129,243
607735115,156,154,116,291,261,129,243
607736115,155,154,116,291,263,129,243
607737115,155,154,115,298,262,127,243
607738115,155,154,116,301,261,129,242
607739115,155,154,116,300,258,129,242
607740115,157,154,115,298,253,128,242
607741115,155,154,116,295,251,128,242
607742115,155,152,116,293,252,128,241
607743115,155,152,116,291,247,130,242
607744115,154,153,115,289,244,135,240
607745115,156,152,118,287,244,135,241
607746115,155,153,116,285,238,136,241
607747115,155,153,115,282,233,137,240
607748115,155,153,116,280,231,137,240
607749115,154,153,115,280,228,135,240
607750115,155,155,115,281,225,136,238
607751115,155,152,116,281,223,136,240
607752115,155,152,116,279,218,136,240
607753115,155,153,116,278,215,139,240
607754115,156,152,115,278,212,135,238
607755115,155,152,115,281,211,135,238
607756115,155,152,116,284,208,141,238
607757115,159,152,116,287,206,138,238
607758115,155,152,116,283,204,138,237
607759115,155,152,116,281,201,138,238
607760115,155,151,115,280,199,138,237
607761115,154,152,116,278,196,138,237
607762115,155,152,116,276,195,137,237
607763115,155,150,118,275,198,136,236
607764115,155,151,116,274,199,136,237
607765115,155,151,115,272,199,136,236
607766115,154,152,116,270,202,135,236
607767115,154,151,115,268,204,134,236
607768115,154,150,116,266,202,136,236
607769115,154,150,116,266,200,136,235
607770115,155,151,116,265,197,137,235
607771115,154,151,116,265,196,136,236
607772115,155,151,115,263,193,136,235
607773115,155,150,116,260,190,136,235
607774115,155,154,117,259,194,136,235
607775115,154,155,116,259,193,136,234
607776115,154,158,115,258,192,136,235
607777115,154,161,116,257,193,138,234
607778115,155,164,116,253,192,137,234
607779115,155,168,114,255,189,138,234
607780115,155,168,116,254,192,140,233
607781115,155,168,116,256,200,140,233
607782115,155,168,116,259,210,141,233
607783115,157,168,116,263,213,144,233
607784115,155,168,116,264,211,146,233
607785115,155,168,116,263,209,146,233
607786115,155,167,116,262,209,148,233
607787115,155,167,116,266,207,149,233
607788115,155,167,116,274,204,149,233
607789115,154,167,115,279,201,148,232
607790115,154,172,116,280,198,153,232
607791115,154,180,116,281,196,153,232
607792115,155,186,116,279,201,156,231
607793115,155,188,116,278,207,160,232
607794115,155,188,115,275,211,159,232
607795115,155,187,117,274,215,162,231
607796115,156,187,119,272,213,163,231
607797115,159,185,116,270,213,165,232
607798115,154,185,116,274,210,165,233
607799115,155,184,116,276,208,165,231
607800115,155,184,116,276,205,165,231
607801115,154,183,116,275,203,165,231
607802115,155,182,116,280,200,164,231
607803115,155,181,116,280,197,165,230
607804115,156,181,116,282,196,166,228
607805115,155,176,116,277,195,169,231
607806115,157,180,116,275,201,174,228
607807115,155,176,116,274,213,175,230
607808115,155,178,115,274,229,173,230
607809115,153,177,115,272,245,172,230
607810115,155,181,115,270,265,168,232
607811115,154,176,116,268,277,172,228
607812115,155,176,116,267,279,170,230
607813115,155,177,116,267,278,170,230
607814115,154,174,116,263,296,172,230
607815115,158,173,116,261,315,170,229
607816115,155,172,116,261,328,170,230
607817115,155,172,116,261,332,169,229
607818115,154,172,116,260,337,170,230
607819115,155,171,116,259,339,169,230
607820115,155,171,113,258,339,168,229
607821115,157,171,115,257,337,167,229
607822115,155,170,116,257,332,167,229
607823115,154,169,116,256,328,168,229
607824115,155,169,116,257,323,169,228
607825115,155,168,115,258,317,169,229
607826115,155,167,115,258,313,168,228
607827115,154,168,115,260,309,168,229
607828115,155,167,116,266,305,166,228
607829115,155,167,117,269,300,166,226
607830115,155,166,116,267,295,166,228
607831115,155,166,116,269,291,166,228
607832115,155,166,115,274,285,167,228
607833115,155,166,116,275,282,168,228
607834115,155,167,116,274,278,170,228
607835115,154,168,116,272,275,171,227
607836115,155,168,112,269,269,171,228
607837115,155,168,116,266,268,172,228
607838115,156,168,116,265,262,172,227
607839115,155,167,116,264,261,173,228
607840115,155,167,115,263,262,173,228
607841115,155,166,116,262,262,173,228
607842115,155,167,117,260,263,171,228
607843115,154,170,115,257,262,170,227
607844115,155,171,116,257,264,168,227
607845115,153,170,115,258,265,168,227
607846115,154,170,115,257,264,167,227
607847115,155,168,117,256,267,168,227
607848115,155,168,116,255,277,171,227
607849115,155,168,116,252,292,166,227
607850115,155,167,115,252,312,166,227
607851115,155,167,116,249,329,165,227
607852115,155,167,116,251,329,164,227
607853115,155,166,115,249,338,161,227
607854115,155,166,116,247,357,164,226
607855115,156,165,116,248,376,163,227
607856115,154,165,116,251,393,164,227
607857115,157,159,115,250,408,164,226
607858115,150,164,116,250,420,163,226
607859115,155,165,116,250,426,162,227
607860115,151,164,116,249,428,161,227
607861115,155,163,115,249,425,160,227
607862115,157,163,115,248,417,160,226
607863115,154,163,116,246,411,159,226
607864115,155,163,116,245,404,158,221
607865115,155,163,116,244,397,156,226
607866115,155,162,115,243,390,157,227
607867115,155,161,116,243,383,158,226
607868115,155,161,115,242,377,159,226
607869115,155,161,116,239,370,159,226
607870115,155,161,115,243,364,160,226
607871115,155,163,115,243,358,160,225
607872115,155,161,116,242,353,162,225
607873115,155,160,116,241,345,164,226
607874115,154,161,116,240,342,165,230
607875115,155,161,115,238,338,164,226
607876115,154,162,114,236,333,164,226
607877115,155,163,115,236,331,164,226
607878115,154,163,115,236,324,163,226
607879115,155,163,116,236,317,162,225
607880115,155,162,115,234,314,161,226
607881115,155,163,116,234,310,160,225
607882115,155,165,115,237,306,159,226
607883115,150,169,116,238,300,158,226
607884115,154,172,116,238,296,157,226
607885115,155,170,116,238,291,157,225
607886115,154,175,115,239,285,156,225
607887115,154,176,116,238,283,154,225
607888115,154,176,116,238,278,154,225
607889115,153,175,116,244,274,153,226
607890115,155,174,115,245,272,152,226
607891115,155,173,115,243,266,151,226
607892115,154,172,115,243,262,151,225
607893115,155,172,116,242,259,151,226
607894115,155,172,116,245,256,153,226
607895115,155,171,112,249,250,155,225
607896115,154,172,115,252,247,155,225
607897115,155,171,115,254,246,154,225
607898115,155,170,116,260,241,154,225
607899115,155,170,115,263,233,153,222
607900115,155,170,116,264,234,152,225
607901115,156,169,115,262,230,152,224
607902115,155,169,115,261,227,151,225
607903115,155,168,113,260,225,154,225
607904115,154,168,117,258,221,150,224
607905115,155,168,116,257,218,149,225
607906115,155,167,116,256,215,149,225
607907115,157,167,115,254,221,149,225
607908115,156,166,115,252,234,152,225
607909115,155,167,116,250,257,148,225
607910115,155,166,115,250,283,147,224
607911115,154,164,116,253,306,148,224
607912115,155,164,115,250,322,150,225
607913115,155,167,116,249,321,149,225
607914115,154,164,115,253,321,149,225
607915115,154,164,116,255,339,149,220
607916115,155,165,116,253,356,149,225
607917115,155,162,115,251,365,150,224
607918115,155,162,115,250,371,153,224
607919115,155,162,115,248,375,154,225
607920115,155,162,116,247,374,154,224
607921115,155,162,116,246,368,153,224
607922115,155,161,116,244,364,153,221
607923115,154,160,115,244,364,152,222
607924115,155,161,115,242,367,151,222
607925115,155,161,116,241,372,150,225
607926115,155,160,116,241,381,152,224
607927115,154,159,115,242,372,150,225
607928115,155,161,115,242,371,151,224
607929115,155,159,115,244,377,148,224
607930115,155,159,115,244,396,149,224
607931115,155,159,115,244,420,152,224
607932115,155,160,115,243,439,152,224
607933115,156,159,115,241,449,151,224
607934115,158,158,116,241,453,150,224
607935115,154,157,115,239,452,149,224
607936115,153,158,115,237,447,149,224
607937115,155,157,115,236,440,148,226
607938115,155,156,117,238,434,148,224
607939115,155,157,116,239,425,147,225
607940115,154,156,115,238,418,147,224
607941115,155,160,116,237,409,147,224
607942115,155,156,115,236,406,147,224
607943115,155,155,115,234,395,148,223
607944115,159,156,115,234,389,149,224
607945115,154,158,116,236,383,148,224
607946115,155,155,116,239,377,147,224
607947115,156,155,115,243,373,147,224
607948115,153,155,116,248,369,146,223
607949115,155,155,112,246,365,146,224
607950115,154,155,115,249,361,145,225
607951115,155,155,115,251,355,145,224
607952115,155,154,119,254,349,144,224
607953115,155,154,115,252,344,146,224
607954115,155,154,116,255,338,143,221
607955115,155,154,116,257,333,142,224
607956115,155,154,115,262,327,141,224
607957115,155,153,115,266,321,142,224
607958115,155,152,119,261,317,140,224
607959115,154,153,115,264,311,140,224
607960115,155,153,115,262,307,140,223
607961115,155,153,115,261,301,139,223
607962115,155,153,115,260,297,139,224
607963115,155,152,116,262,292,141,224
607964115,155,153,116,264,288,138,225
607965115,155,152,115,264,283,138,224
607966115,155,152,116,263,279,137,224
607967115,155,153,115,265,274,137,224
607968115,155,149,115,267,270,137,223
607969115,155,153,115,265,266,137,224
607970115,155,153,115,263,263,138,223
607971115,155,152,115,263,263,140,223
607972115,154,152,115,266,264,140,224
607973115,155,151,115,265,265,136,223
607974115,155,152,116,264,263,139,223
607975115,158,152,116,267,262,139,224
607976115,155,150,115,265,258,139,224
607977115,154,152,115,262,253,139,224
607978115,155,150,113,263,250,140,224
607979115,155,152,115,261,249,140,224
607980115,155,152,116,260,247,141,223
607981115,154,151,115,258,245,142,223
607982115,158,151,115,258,242,141,223
607983115,154,151,115,257,238,141,222
607984115,155,150,115,257,235,141,224
607985115,155,151,115,253,232,140,224
607986115,154,150,115,252,229,140,223
607987115,155,150,116,251,228,140,223
607988115,156,151,115,253,229,139,223
607989115,154,151,115,258,233,138,223
607990115,155,151,115,251,236,138,222
607991115,155,152,115,250,235,138,225
607992115,156,150,115,250,232,137,218
607993115,155,150,115,252,231,137,224
607994115,155,151,115,256,241,137,224
607995115,155,153,115,263,259,136,222
607996115,154,149,115,266,277,136,223
607997115,153,151,115,264,291,138,224
607998115,155,150,115,262,296,139,225
607999115,155,150,115,262,298,139,223
608000115,155,150,115,263,293,140,223
608001115,154,150,116,272,289,139,219
608002115,153,150,113,277,284,138,223
608003115,155,150,112,278,280,139,223
608004115,155,150,115,277,277,137,223
608005115,154,150,114,275,277,137,223
608006115,155,149,115,273,272,140,223
608007115,155,150,115,272,272,139,225
608008115,155,149,116,272,267,140,224
608009115,155,150,118,268,265,140,223
608010115,155,150,116,266,262,142,223
608011115,157,150,116,265,261,139,223
608012115,155,149,116,261,259,138,222
608013115,154,150,116,261,254,137,222
608014115,152,152,115,260,250,137,224
608015115,154,149,115,260,247,138,219
608016115,155,150,118,260,243,140,224
608017115,155,149,115,258,239,141,223
608018115,155,145,115,258,236,143,224
608019115,154,150,116,258,233,144,223
608020115,155,150,115,258,230,146,222
608021115,154,149,116,261,227,147,223
608022115,155,149,116,259,223,146,223
608023115,154,149,116,257,219,149,224
608024115,155,149,116,259,217,144,223
608025115,155,149,116,260,215,146,224
608026115,155,149,116,260,211,146,223
608027115,154,149,116,255,210,145,223
608028115,154,149,116,258,209,144,225
608029115,155,149,116,256,208,144,224
608030115,155,150,116,253,205,144,224
608031115,154,149,115,252,202,144,219
608032115,155,149,116,253,200,145,222
608033115,154,149,115,252,197,145,223
608034115,154,149,115,250,196,145,222
608035115,154,149,116,250,193,145,222
608036115,154,149,115,250,193,147,223
608037115,154,148,116,250,194,147,223
608038115,155,149,116,249,196,143,223
608039115,155,149,115,247,203,147,222
608040115,154,149,116,246,206,144,223
608041115,154,148,115,247,201,147,223
608042115,156,146,117,250,203,151,223
608043115,155,148,116,253,201,151,221
608044115,153,148,116,247,200,151,225
608045115,155,152,117,251,205,149,218
608046115,157,148,115,249,213,149,223
608047115,154,149,115,255,217,151,223
608048115,154,149,116,264,222,151,223
608049115,155,149,115,270,225,151,223
608050115,154,149,115,270,222,150,222
608051115,152,149,116,277,219,149,222
608052115,158,149,113,284,214,144,223
608053115,155,149,116,291,213,148,222
608054115,155,149,116,290,211,150,223
608055115,151,148,115,291,208,147,224
608056115,155,149,116,296,206,151,226
608057115,154,148,115,301,210,148,223
608058115,154,148,115,303,213,147,224
608059115,155,148,116,301,218,147,222
608060115,155,148,114,298,218,147,222
608061115,155,149,115,297,216,147,223
608062115,155,152,116,306,217,146,223
608063115,156,149,116,316,221,147,223
608064115,155,149,115,319,223,149,223
608065115,156,148,116,316,223,150,223
608066115,159,148,116,322,224,157,224
608067115,161,148,116,331,226,160,222
608068115,159,151,116,338,223,160,223
608069115,159,149,116,344,224,160,223
608070115,159,149,119,342,238,163,221
608071115,160,152,117,339,255,168,222
608072115,161,148,117,337,271,172,222
608073115,160,149,118,338,292,170,223
608074115,160,149,118,340,310,177,223
608075115,161,148,119,337,315,184,223
608076115,163,149,119,335,310,185,220
608077115,162,149,119,333,315,185,224
608078115,163,148,119,338,325,185,223
608079115,162,149,119,340,330,182,223
608080115,161,148,118,338,334,181,222
608081115,162,151,119,340,337,180,223
608082115,163,151,119,341,335,179,223
608083115,169,148,120,343,332,179,222
608084115,180,149,121,341,327,180,224
608085115,191,148,120,338,321,180,222
608086115,198,148,120,334,316,182,223
608087115,197,149,120,331,313,185,224
608088115,196,150,120,327,310,187,223
608089115,195,150,119,325,304,188,222
608090115,196,150,119,325,305,188,223
608091115,195,150,119,324,310,184,223
608092115,193,150,120,325,316,188,223
608093115,193,150,120,323,320,190,222
608094115,192,151,120,319,318,189,222
608095115,192,151,119,320,313,187,221
608096115,190,150,120,316,316,187,223
608097115,189,151,118,314,325,187,223
608098115,189,150,119,311,320,185,223
608099115,188,150,120,309,325,185,222
608100115,187,154,119,306,333,187,223
608101115,186,151,120,305,338,183,223
608102115,185,150,120,300,334,182,222
608103115,186,150,119,298,331,182,222
608104115,185,150,119,296,337,184,223
608105115,185,151,118,294,344,185,223
608106115,184,151,119,291,346,185,222
608107115,183,152,119,289,343,184,222
608108115,182,152,119,289,339,184,224
608109115,181,152,119,284,337,182,223
608110115,181,151,119,283,329,181,223
608111115,182,151,119,280,323,181,222
608112115,181,151,119,279,319,183,222
608113115,180,151,118,279,316,184,224
608114115,179,151,118,275,312,186,223
608115115,178,150,119,273,313,187,222
608116115,179,150,116,271,309,189,225
608117115,180,151,119,268,320,189,223
608118115,179,150,119,266,343,188,223
608119115,178,151,115,265,370,188,226
608120115,177,145,118,263,393,189,223
608121115,177,151,118,261,424,194,223
608122115,177,150,118,260,433,198,223
608123115,178,151,116,259,433,200,223
608124115,182,150,118,257,430,200,223
608125115,181,150,118,255,425,202,223
608126115,184,151,118,252,420,205,222
608127115,185,150,118,250,412,212,222
608128115,182,150,119,250,407,214,223
608129115,185,150,121,250,406,217,222
608130115,193,150,122,252,405,218,222
608131115,199,150,122,251,400,218,223
608132115,201,151,125,250,393,216,222
608133115,203,153,124,249,389,214,222
608134115,204,150,125,248,388,215,223
608135115,207,150,125,246,390,213,222
608136115,205,150,124,247,386,213,223
608137115,205,151,124,247,380,212,223
608138115,209,151,125,250,375,211,222
608139115,209,151,124,249,369,209,222
608140115,208,151,124,248,363,206,222
608141115,206,154,124,248,357,208,223
608142115,206,153,124,256,355,210,224
608143115,205,155,124,261,353,218,222
608144115,204,155,124,265,347,220,223
608145115,207,156,124,266,342,217,222
608146115,203,155,124,266,343,217,222
608147115,202,158,126,268,349,217,224
608148115,201,155,123,275,358,214,223
608149115,201,155,123,273,365,216,222
608150115,199,155,122,277,363,213,224
608151115,199,155,124,277,364,221,224
608152115,197,160,125,277,372,219,223
608153115,197,165,122,280,371,220,223
608154115,195,167,123,281,368,221,222
608155115,196,168,122,279,368,223,224
608156115,201,167,122,278,372,225,223
608157115,202,167,122,276,378,225,225
608158115,209,166,122,274,385,226,223
608159115,213,173,124,273,392,227,223
608160115,216,171,126,270,394,229,223
608161115,217,173,126,268,392,230,222
608162115,223,172,125,267,387,230,222
608163115,230,172,125,265,381,231,222
608164115,240,171,125,268,374,232,222
608165115,250,173,129,273,369,233,221
608166115,258,176,134,275,365,234,222
608167115,260,178,138,276,356,234,222
608168115,259,178,140,283,350,235,223
608169115,261,178,141,292,345,235,222
608170115,274,178,143,292,339,236,223
608171115,281,176,141,293,333,233,223
608172115,284,176,142,308,331,232,223
608173115,283,176,141,327,334,233,223
608174115,280,177,144,344,335,228,223
608175115,277,177,144,347,331,226,222
608176115,275,178,146,346,326,224,222
608177115,272,177,145,346,321,223,222
608178115,270,176,145,353,315,223,223
608179115,267,176,145,352,311,219,222
608180115,264,176,144,350,306,220,223
608181115,264,174,143,345,301,221,223
608182115,259,174,141,344,297,220,223
608183115,257,173,141,340,294,216,223
608184115,254,176,141,338,292,216,226
608185115,252,172,140,333,291,214,223
608186115,250,171,138,330,291,212,225
608187115,248,171,136,327,290,210,223
608188115,246,170,139,325,289,208,223
608189115,245,170,140,323,287,205,224
608190115,242,169,137,321,285,203,224
608191115,241,171,139,318,285,204,223
608192115,238,169,137,316,291,201,222
608193115,236,168,136,313,293,201,224
608194115,235,168,136,310,293,202,224
608195115,233,167,135,308,288,200,222
608196115,231,167,135,304,284,198,223
608197115,230,166,134,307,286,196,223
608198115,230,166,135,305,297,206,223
608199115,227,165,133,303,312,212,220
608200115,225,161,133,299,316,218,223
608201115,223,164,133,294,313,218,222
608202115,223,164,133,295,321,216,222
608203115,221,164,132,293,333,214,223
608204115,219,164,135,291,342,212,223
608205115,218,163,132,291,345,211,223
608206115,216,163,131,285,345,212,223
608207115,215,163,129,287,343,211,223
608208115,214,163,131,281,340,209,225
608209115,212,162,130,280,332,208,223
608210115,211,165,130,278,327,205,223
608211115,210,166,129,279,321,204,222
608212115,209,168,132,280,315,204,224
608213115,207,170,129,278,311,204,222
608214115,206,172,129,277,307,205,223
608215115,205,172,128,274,303,204,222
608216115,203,174,126,274,299,203,220
608217115,203,173,127,272,295,200,222
608218115,201,176,127,271,296,199,224
608219115,201,179,126,271,296,201,223
608220115,199,180,128,273,294,197,223
608221115,199,181,126,276,291,195,222
608222115,198,180,127,276,286,193,223
608223115,197,180,126,275,282,192,223
608224115,196,181,127,274,278,191,222
608225115,195,182,127,273,275,188,225
608226115,193,182,128,276,269,187,223
608227115,194,182,126,274,266,186,224
608228115,193,182,126,274,266,185,222
608229115,191,182,127,273,269,183,223
608230115,190,181,126,270,274,182,222
608231115,190,182,121,272,288,180,223
608232115,189,182,128,278,308,179,222
608233115,187,182,125,284,332,180,223
608234115,188,180,126,289,353,178,222
608235115,187,180,126,289,361,177,219
608236115,187,180,125,287,359,176,224
608237115,188,180,124,284,358,175,221
608238115,185,180,124,285,357,173,223
608239115,185,179,126,286,362,173,223
608240115,185,178,126,284,376,172,224
608241115,184,178,127,283,395,170,224
608242115,186,177,127,281,418,170,221
608243115,187,176,127,275,432,169,222
608244115,187,176,126,282,442,168,223
608245115,186,175,126,285,448,167,226
608246115,185,175,128,287,452,166,221
608247115,185,174,127,288,451,165,224
608248115,184,173,126,290,449,161,224
608249115,185,173,126,289,444,164,222
608250115,187,172,125,288,437,163,222
608251115,188,172,126,286,430,162,222
608252115,196,171,125,284,422,161,223
608253115,195,171,126,283,415,163,224
608254115,194,170,124,281,405,163,220
608255115,194,169,125,279,399,168,223
608256115,193,169,125,278,393,172,222
608257115,193,168,124,279,386,174,223
608258115,191,169,125,277,380,177,223
608259115,189,171,124,275,374,178,224
608260115,189,168,125,276,367,176,224
608261115,189,167,124,278,361,176,223
608262115,187,167,123,277,354,177,223
608263115,186,167,123,276,348,176,223
608264115,188,170,123,272,343,176,222
608265115,185,166,123,273,338,174,223
608266115,185,166,125,271,332,173,220
608267115,184,166,123,269,326,172,223
608268115,186,166,122,267,322,171,223
608269115,191,166,122,265,316,171,224
608270115,197,166,123,267,313,171,222
608271115,198,165,123,262,310,172,224
608272115,197,165,128,261,311,169,223
608273115,199,160,132,259,312,169,222
608274115,199,165,138,258,314,169,223
608275115,203,168,145,256,317,173,222
608276115,209,173,146,253,316,168,223
608277115,209,179,149,252,312,162,223
608278115,207,184,162,250,314,161,223
608279115,213,181,170,250,318,165,222
608280115,218,187,172,248,320,164,223
608281115,216,190,172,247,316,163,227
608282115,215,192,171,247,312,162,222
608283115,220,191,171,246,310,162,223
608284115,226,189,168,245,314,162,223
608285115,227,190,168,245,325,160,223
608286115,226,194,168,245,341,161,223
608287115,225,201,171,242,365,160,223
608288115,228,210,172,242,379,159,224
608289115,230,216,172,240,384,158,223
608290115,231,215,171,243,377,157,223
608291115,226,214,168,246,375,160,224
608292115,224,213,169,251,377,161,223
608293115,225,212,168,250,379,157,224
608294115,222,214,167,253,379,161,224
608295115,220,215,166,263,378,165,224
608296115,219,216,165,265,389,171,223
608297115,218,215,164,265,392,169,223
608298115,216,214,163,266,387,167,223
608299115,215,213,162,266,386,167,222
608300115,214,213,163,267,392,168,227
608301115,212,212,160,267,403,167,223
608302115,211,211,161,265,416,167,223
608303115,211,216,161,268,420,168,225
608304115,209,218,161,268,410,168,223
608305115,209,219,160,268,409,168,223
608306115,207,218,160,267,404,166,222
608307115,205,217,158,265,411,166,223
608308115,204,215,158,264,421,164,223
608309115,204,214,159,269,437,164,218
608310115,202,213,156,273,455,163,223
608311115,201,212,155,276,469,162,223
608312115,201,210,154,275,477,167,223
608313115,199,210,152,273,479,168,222
608314115,198,209,153,272,473,173,223
608315115,197,205,154,272,466,174,223
608316115,196,205,151,274,458,174,223
608317115,195,203,150,275,454,170,223
608318115,194,202,149,278,450,175,222
608319115,195,201,148,281,445,173,223
608320115,193,200,148,283,439,173,223
608321115,193,199,147,281,439,176,223
608322115,194,198,147,280,448,180,224
608323115,190,197,146,284,456,185,222
608324115,190,195,145,286,477,187,223
608325115,189,195,145,285,505,188,223
608326115,188,194,146,284,529,186,222
608327115,187,193,143,279,540,185,224
608328115,186,192,142,278,539,186,223
608329115,185,191,142,276,531,186,222
608330115,185,189,140,274,536,192,223
608331115,184,188,140,274,548,193,221
608332115,185,188,140,274,554,193,222
608333115,186,187,139,274,565,190,222
608334115,184,187,139,274,585,189,222
608335115,182,187,138,269,603,189,223
608336115,182,186,138,271,612,190,221
608337115,181,193,137,275,624,195,223
608338115,181,196,136,278,634,196,223
608339115,176,199,137,290,633,196,223
608340115,179,200,138,294,624,194,223
608341115,178,199,135,295,622,193,222
608342115,178,199,135,293,635,191,223
608343115,178,200,135,301,653,192,219
608344115,178,200,134,307,676,192,223
608345115,177,204,135,314,689,190,223
608346115,177,199,136,318,683,189,223
608347115,176,200,135,319,688,188,224
608348115,176,199,133,318,702,186,223
608349115,177,198,134,324,707,185,219
608350115,175,199,134,332,716,184,222
608351115,177,200,134,336,727,183,223
608352115,180,200,134,346,736,182,222
608353115,181,201,134,356,734,181,222
608354115,183,202,134,364,729,179,220
608355115,180,207,134,371,719,178,220
608356115,179,209,133,372,706,178,218
608357115,180,209,133,368,694,183,217
608358115,183,211,133,375,678,187,217
608359115,187,206,132,386,661,189,217
608360115,192,207,128,393,653,189,218
608361115,197,207,132,395,640,189,218
608362115,202,209,128,391,628,190,218
608363115,204,210,133,388,616,186,219
608364115,204,209,131,387,603,189,218
608365115,202,208,130,395,593,188,218
608366115,202,208,131,402,582,186,218
608367115,201,206,130,408,571,185,218
608368115,200,204,129,416,561,186,219
608369115,199,203,131,416,551,185,219
608370115,199,200,129,416,541,184,218
608371115,196,202,129,413,533,183,219
608372115,197,200,129,412,525,181,218
608373115,195,200,129,409,517,180,220
608374115,194,198,129,405,510,179,219
608375115,194,199,128,406,505,178,219
608376115,193,196,128,414,503,179,218
608377115,192,195,128,414,507,178,219
608378115,191,194,127,409,513,176,219
608379115,193,193,127,404,519,174,219
608380115,189,194,126,399,523,172,219
608381115,189,192,126,394,527,172,220
608382115,188,190,125,391,528,171,219
608383115,188,190,125,389,533,172,219
608384115,188,188,125,387,537,168,219
608385115,186,187,125,386,541,167,221
608386115,183,184,124,380,548,167,219
608387115,184,185,125,377,553,166,215
608388115,184,185,127,375,550,164,219
608389115,183,184,124,372,540,166,220
608390115,183,184,124,368,540,165,219
608391115,182,183,123,365,551,163,220
608392115,182,182,123,360,558,163,219
608393115,181,181,123,355,560,165,219
608394115,180,180,123,353,551,165,219
608395115,179,179,121,349,547,165,220
608396115,180,179,121,346,538,164,219
608397115,179,178,123,345,529,166,220
608398115,178,178,122,342,519,167,216
608399115,181,177,122,347,519,170,223
608400115,177,177,123,352,528,171,220
608401115,177,176,122,353,540,169,220
608402115,177,174,122,348,555,169,220
608403115,176,173,122,348,563,171,220
608404115,174,173,121,353,563,173,223
608405115,174,170,122,357,559,174,220
608406115,175,172,121,360,554,176,220
608407115,174,172,121,359,546,175,220
608408115,172,171,124,364,542,177,221
608409115,172,171,121,369,564,177,221
608410115,171,170,121,377,609,179,220
608411115,172,169,120,385,672,181,224
608412115,172,168,120,387,756,184,221
608413115,171,168,120,388,800,184,221
608414115,173,168,119,388,793,184,220
608415115,170,168,120,384,807,184,220
608416115,171,168,120,379,826,183,221
608417115,170,167,121,377,851,182,220
608418115,170,166,120,378,880,180,221
608419115,169,167,120,378,905,182,220
608420115,169,165,120,380,923,174,221
608421115,169,166,120,380,932,175,220
608422115,168,166,120,384,934,172,221
608423115,168,166,120,387,928,174,220
608424115,168,166,120,386,911,173,220
608425115,167,166,120,386,899,173,220
608426115,167,166,120,383,882,172,220
608427115,168,166,120,381,864,172,220
608428115,170,170,120,378,848,172,221
608429115,170,166,120,375,832,171,221
608430115,170,169,120,371,820,168,221
608431115,176,176,121,369,804,170,219
608432115,179,178,121,366,788,168,220
608433115,179,176,124,362,774,168,221
608434115,178,181,121,361,768,169,221
608435115,178,179,121,361,759,170,219
608436115,178,182,122,361,748,170,221
608437115,178,184,122,359,743,171,221
608438115,176,184,124,358,734,171,222
608439115,176,186,129,353,721,172,222
608440115,176,182,134,350,706,175,221
608441115,175,184,148,346,693,177,221
608442115,173,180,162,343,681,175,219
608443115,174,180,170,340,675,173,221
608444115,173,180,172,337,664,173,220
608445115,174,179,172,334,656,173,221
608446115,173,180,176,331,644,172,220
608447115,172,179,185,329,647,173,222
608448115,172,178,194,326,662,172,221
608449115,171,178,198,324,690,171,221
608450115,172,178,202,323,709,170,222
608451115,173,177,204,318,702,171,221
608452115,175,178,210,316,705,169,220
608453115,176,180,215,317,713,167,221
608454115,176,180,219,324,715,167,221
608455115,176,180,220,329,714,164,221
608456115,176,179,219,332,715,165,221
608457115,176,178,218,330,712,166,221
608458115,171,177,216,330,711,165,222
608459115,173,177,214,327,713,167,221
608460115,175,177,212,325,714,167,221
608461115,174,176,210,324,714,167,221
608462115,170,175,209,323,710,165,222
608463115,173,173,205,324,702,164,222
608464115,170,174,203,321,694,163,220
608465115,172,172,201,323,683,162,221
608466115,170,173,200,332,671,161,222
608467115,171,173,198,334,660,160,222
608468115,170,171,196,338,647,159,221
608469115,170,171,194,339,635,159,222
608470115,172,170,193,340,620,161,221
608471115,170,170,190,342,612,163,222
608472115,169,170,188,343,619,159,222
608473115,169,168,187,340,645,159,222
608474115,169,168,185,337,678,157,222
608475115,168,168,184,338,717,157,222
608476115,168,167,183,334,749,157,221
608477115,168,168,182,332,768,163,221
608478115,168,167,180,330,771,171,222
608479115,168,166,178,327,762,172,221
608480115,166,165,176,324,748,172,221
608481115,168,166,174,322,736,171,221
608482115,166,165,174,318,732,171,221
608483115,168,165,172,315,731,170,221
608484115,166,165,170,313,732,172,222
608485115,166,164,170,311,739,169,226
608486115,168,163,168,313,745,168,221
608487115,166,163,168,310,747,166,222
608488115,166,164,165,308,747,165,221
608489115,165,166,168,311,745,166,221
608490115,165,169,168,305,739,166,223
608491115,164,172,167,304,730,165,222
608492115,165,176,167,306,719,164,221
608493115,162,185,165,306,706,163,221
608494115,164,196,165,306,695,162,223
608495115,164,203,164,305,689,160,221
608496115,163,208,163,304,681,161,221
608497115,163,208,161,304,670,159,222
608498115,163,205,160,310,658,158,217
608499115,166,209,159,325,646,159,220
608500115,176,214,159,348,643,160,221
608501115,184,225,156,358,643,160,219
608502115,186,237,156,359,634,158,218
608503115,185,249,187,362,623,158,218
608504115,185,266,235,368,612,164,216
608505115,185,270,279,374,608,162,216
608506115,185,267,305,375,606,165,216
608507115,182,268,311,377,605,166,215
608508115,183,267,311,383,600,167,216
608509115,187,267,325,384,594,167,216
608510115,191,275,349,380,594,167,217
608511115,187,281,373,380,590,164,217
608512115,195,283,387,382,583,165,216
608513115,204,280,398,387,572,167,217
608514115,215,278,407,386,563,167,217
608515115,218,278,419,382,557,166,217
608516115,219,279,425,379,561,166,215
608517115,217,277,426,374,567,165,217
608518115,220,277,424,373,571,164,217
608519115,221,285,420,371,569,164,217
608520115,225,296,414,374,560,161,218
608521115,231,300,407,378,554,163,217
608522115,235,298,400,376,551,162,217
608523115,233,295,395,373,547,161,218
608524115,232,287,388,372,544,160,218
608525115,230,289,382,376,544,159,217
608526115,229,287,376,379,543,159,218
608527115,229,284,370,376,541,157,218
608528115,226,281,367,381,539,159,218
608529115,224,280,359,388,535,159,218
608530115,222,279,354,395,526,157,218
608531115,221,274,348,402,517,156,218
608532115,217,272,343,402,516,155,218
608533115,218,270,337,399,524,156,218
608534115,217,267,332,395,537,155,219
608535115,215,265,328,391,551,155,218
608536115,214,262,323,387,566,154,218
608537115,213,260,318,383,568,149,219
608538115,212,258,313,380,568,153,219
608539115,210,256,309,375,558,154,218
608540115,210,251,305,371,556,154,217
608541115,208,250,300,367,558,153,219
608542115,207,247,296,363,553,148,218
608543115,205,246,292,359,546,152,219
608544115,204,244,291,356,541,153,219
608545115,203,241,282,355,549,152,219
608546115,202,239,280,355,560,152,220
608547115,200,236,277,357,558,152,219
608548115,200,234,274,359,551,153,219
608549115,200,233,269,359,541,151,219
608550115,198,231,266,357,533,149,219
608551115,197,229,263,355,535,149,219
608552115,197,228,260,351,539,150,220
608553115,196,226,256,352,540,152,219
608554115,195,225,253,350,546,154,220
608555115,194,224,249,351,552,154,219
608556115,194,221,247,349,545,153,219
608557115,192,219,240,345,543,153,219
608558115,191,217,241,350,549,152,222
608559115,190,217,238,363,563,152,222
608560115,189,215,235,386,583,150,220
608561115,189,214,233,407,608,154,219
608562115,187,220,230,414,624,150,220
608563115,188,222,227,412,631,151,220
608564115,187,233,225,425,630,151,220
608565115,186,247,223,444,619,151,219
608566115,186,265,220,454,612,151,220
608567115,187,278,220,452,617,150,220
608568115,186,282,221,448,631,151,220
608569115,189,279,224,441,652,149,220
608570115,192,286,224,439,666,148,221
608571115,193,316,238,433,673,148,220
608572115,194,358,260,434,662,153,220
608573115,193,379,276,440,649,159,220
608574115,194,386,283,441,636,155,221
608575115,194,381,282,436,624,154,221
608576115,190,378,279,429,613,158,220
608577115,192,374,285,426,603,155,220
608578115,190,379,294,424,592,154,219
608579115,194,375,299,419,597,153,219
608580115,201,379,307,412,600,152,220
608581115,208,397,312,408,600,153,220
608582115,212,431,316,405,609,158,219
608583115,213,462,318,405,619,163,221
608584115,212,480,320,404,628,165,221
608585115,210,487,318,400,637,164,220
608586115,215,483,316,397,643,163,220
608587115,215,485,311,391,643,162,220
608588115,221,508,310,387,637,161,220
608589115,220,536,310,382,627,160,221
608590115,219,552,306,378,618,159,220
608591115,225,556,303,373,608,157,220
608592115,235,553,298,370,597,157,220
608593115,243,549,295,366,586,156,221
608594115,249,545,290,362,576,155,221
608595115,250,538,286,363,564,154,220
608596115,250,530,283,362,553,153,222
608597115,247,522,280,358,548,153,220
608598115,245,518,277,356,561,156,224
608599115,244,508,274,351,590,152,220
608600115,241,501,270,355,617,151,221
608601115,240,492,266,352,641,150,220
608602115,239,485,263,350,654,150,220
608603115,236,477,260,350,651,149,221
608604115,234,471,257,349,639,151,221
608605115,233,464,253,347,635,150,221
608606115,231,457,250,345,631,149,220
608607115,229,450,246,340,621,149,221
608608115,230,443,244,337,611,148,221
608609115,227,437,242,342,603,148,221
608610115,224,429,238,348,593,148,221
608611115,223,424,235,353,588,148,221
608612115,221,421,233,353,586,148,221
608613115,220,411,230,349,576,148,221
608614115,217,406,228,346,565,148,221
608615115,216,399,226,345,559,148,221
608616115,216,394,223,341,556,146,221
608617115,215,390,220,341,562,147,221
608618115,213,385,217,359,569,145,222
608619115,214,378,216,380,570,148,221
608620115,211,374,214,398,565,148,222
608621115,210,370,211,408,561,148,221
608622115,208,365,209,407,554,147,221
608623115,207,365,207,422,545,148,220
608624115,206,373,207,442,534,147,221
608625115,205,388,205,467,524,150,221
608626115,206,403,200,484,515,149,222
608627115,202,417,199,491,505,149,221
608628115,202,421,197,492,498,148,222
608629115,201,416,195,493,490,148,221
608630115,199,413,194,492,484,147,221
608631115,199,417,193,489,481,146,220
608632115,198,421,189,487,482,144,222
608633115,196,439,188,483,482,146,220
608634115,196,458,187,477,482,146,222
608635115,195,468,185,470,481,146,222
608636115,194,469,183,471,483,145,221
608637115,193,467,182,475,488,146,218
608638115,193,463,180,477,504,149,221
608639115,192,456,180,476,532,149,221
608640115,191,450,178,468,565,149,222
608641115,189,446,178,469,593,150,221
608642115,188,441,176,465,614,153,222
608643115,188,437,183,459,625,156,221
608644115,187,430,188,453,617,162,222
608645115,187,425,189,447,621,163,221
608646115,187,419,188,441,633,164,222
608647115,185,415,192,436,639,161,222
608648115,186,416,200,430,640,160,222
608649115,185,417,211,425,628,164,220
608650115,185,414,220,421,630,165,220
608651115,183,409,225,417,632,165,222
608652115,182,405,222,415,626,164,221
608653115,182,401,227,416,617,163,222
608654115,182,396,242,413,620,162,221
608655115,181,392,259,408,637,161,222
608656115,181,388,268,405,662,161,222
608657115,180,381,273,400,676,159,222
608658115,179,379,272,395,686,161,221
608659115,178,375,268,391,701,161,222
608660115,179,372,269,387,713,159,221
608661115,178,369,272,382,722,157,222
608662115,178,372,276,378,726,152,222
608663115,179,376,282,373,722,155,221
608664115,175,376,288,369,711,155,222
608665115,180,376,292,365,701,156,222
608666115,176,372,294,364,708,156,223
608667115,176,368,294,367,722,156,223
608668115,176,362,291,373,749,158,222
608669115,175,358,288,382,774,158,223
608670115,175,354,287,388,783,158,222
608671115,174,349,281,389,771,157,222
608672115,169,344,278,388,756,157,221
608673115,172,340,274,384,742,161,222
608674115,172,337,269,381,733,162,222
608675115,172,332,267,388,730,164,223
608676115,171,328,263,389,728,163,221
608677115,171,322,260,385,722,163,222
608678115,171,322,256,380,718,162,222
608679115,172,316,256,377,725,161,222
608680115,168,313,250,373,725,161,221
608681115,170,309,247,372,719,165,223
608682115,169,305,244,370,723,169,221
608683115,170,302,242,367,715,170,222
608684115,169,299,239,363,702,170,220
608685115,168,295,235,368,704,169,222
608686115,169,297,233,373,714,168,222
608687115,169,311,232,383,723,168,221
608688115,168,338,245,388,727,167,222
608689115,170,366,250,386,736,168,222
608690115,178,393,250,382,745,167,223
608691115,185,408,246,378,752,165,222
608692115,187,418,247,374,757,165,223
608693115,182,419,253,371,753,159,222
608694115,185,420,264,370,743,164,224
608695115,184,441,271,371,732,163,223
608696115,183,487,275,373,719,162,222
608697115,183,530,274,375,701,163,222
608698115,183,555,277,376,692,160,221
608699115,183,558,284,373,675,163,222
608700115,183,552,289,373,666,164,223
608701115,182,545,288,372,655,166,223
608702115,182,538,283,372,644,165,222
608703115,184,531,281,370,634,168,222
608704115,183,523,277,369,626,170,223
608705115,181,515,273,367,616,171,223
608706115,182,512,269,364,610,174,223
608707115,180,526,268,360,602,176,223
608708115,181,553,265,357,596,178,223
608709115,184,578,264,357,591,178,221
608710115,191,580,261,353,586,180,222
608711115,200,577,262,344,581,177,222
608712115,207,578,261,352,580,182,222
608713115,209,584,257,351,581,183,220
608714115,210,593,254,349,582,185,223
608715115,208,606,251,353,582,188,222
608716115,207,609,248,360,578,189,222
608717115,205,610,246,370,568,188,221
608718115,208,605,246,374,557,189,223
608719115,204,597,243,372,547,186,222
608720115,203,588,241,376,538,186,222
608721115,203,580,238,388,527,186,222
608722115,202,570,234,396,521,192,222
608723115,201,562,232,395,528,196,221
608724115,201,552,229,391,539,198,223
608725115,200,543,227,388,557,200,221
608726115,198,535,224,384,592,201,221
608727115,198,527,221,380,632,202,221
608728115,197,516,219,380,658,201,222
608729115,196,510,217,379,659,199,223
608730115,195,502,214,377,646,199,223
608731115,194,494,212,372,634,198,222
608732115,193,487,210,369,622,201,221
608733115,192,480,208,365,612,205,222
608734115,192,471,205,361,604,211,226
608735115,190,465,203,359,598,220,222
608736115,189,457,201,357,587,223,222
608737115,188,451,200,355,595,221,225
608738115,189,443,198,353,613,219,221
608739115,187,437,196,350,619,221,223
608740115,186,431,195,349,616,225,222
608741115,186,425,192,350,613,228,223
608742115,185,418,190,349,614,228,221
608743115,185,412,189,349,620,226,222
608744115,185,407,187,344,623,223,223
608745115,183,402,186,346,614,222,221
608746115,183,395,184,347,605,225,222
608747115,181,390,183,345,596,227,223
608748115,182,385,181,344,586,226,223
608749115,181,378,180,343,575,226,222
608750115,181,375,179,342,571,226,221
608751115,180,370,177,344,570,226,224
608752115,180,366,176,342,567,227,223
608753115,179,364,174,338,557,228,221
608754115,179,367,173,336,558,231,221
608755115,178,368,171,332,568,233,221
608756115,177,369,170,330,582,237,221
608757115,178,365,168,330,599,237,221
608758115,177,361,168,337,610,236,221
608759115,177,357,167,344,611,234,222
608760115,175,351,166,345,606,232,221
608761115,174,351,164,344,601,230,222
608762115,176,346,163,343,591,228,220
608763115,176,342,162,342,582,229,222
608764115,173,338,162,340,569,230,221
608765115,175,334,159,338,558,232,221
608766115,174,334,163,339,549,234,223
608767115,173,334,177,346,552,241,222
608768115,174,331,187,355,556,243,221
608769115,172,329,190,362,562,247,221
608770115,172,327,191,361,564,253,220
608771115,177,333,192,359,559,259,221
608772115,184,349,187,374,552,263,222
608773115,184,362,189,387,543,264,225
608774115,186,371,195,396,531,270,220
608775115,197,371,198,398,525,272,222
608776115,207,374,195,398,515,273,222
608777115,214,373,204,397,507,276,222
608778115,216,376,216,394,501,280,221
608779115,216,372,216,393,498,283,221
608780115,215,369,211,388,497,288,222
608781115,212,363,212,385,503,294,222
608782115,213,359,212,382,521,302,221
608783115,211,355,216,377,562,306,221
608784115,210,352,224,374,635,314,221
608785115,209,347,234,375,734,321,222
608786115,206,343,242,376,811,321,221
608787115,205,340,245,377,838,319,222
608788115,204,334,246,376,830,315,221
608789115,203,332,246,374,854,310,222
608790115,203,328,244,369,892,306,221
608791115,201,323,245,365,932,306,223
608792115,200,320,243,363,963,308,221
608793115,200,316,240,359,984,316,222
608794115,199,313,238,355,991,320,225
608795115,198,309,235,351,988,325,222
608796115,196,305,233,350,973,328,223
608797115,197,302,231,345,954,332,223
608798115,195,299,230,342,935,332,223
608799115,195,299,226,339,917,334,222
608800115,194,292,221,336,903,337,221
608801115,193,289,219,336,889,338,223
608802115,192,287,217,330,871,342,222
608803115,192,283,211,327,855,346,220
608804115,190,280,213,324,837,351,221
608805115,189,278,211,322,821,358,223
608806115,188,275,208,318,808,361,223
608807115,189,273,206,315,796,366,222
608808115,187,269,204,313,787,372,217
608809115,186,266,202,311,777,376,224
608810115,186,264,200,307,770,380,220
608811115,184,261,199,305,760,386,220
608812115,184,260,196,302,750,390,221
608813115,184,257,193,299,741,394,220
608814115,184,255,193,299,734,401,220
608815115,183,251,191,294,725,407,220
608816115,182,250,189,291,715,408,221
608817115,182,251,188,290,705,412,220
608818115,180,245,185,289,696,418,220
608819115,179,243,186,288,685,422,220
608820115,180,240,183,287,676,426,220
608821115,179,240,181,288,665,432,222
608822115,179,237,180,293,659,436,223
608823115,176,236,178,298,651,441,220
608824115,177,233,176,300,642,445,220
608825115,177,232,176,301,635,452,220
608826115,177,234,174,296,630,455,221
608827115,176,230,172,297,626,458,219
608828115,176,230,170,302,620,463,220
608829115,176,230,171,301,613,468,220
608830115,173,231,171,299,606,472,220
608831115,174,231,169,297,597,475,219
608832115,176,241,169,294,586,483,221
608833115,182,241,169,292,578,487,222
608834115,189,248,167,290,576,492,220
608835115,195,257,167,288,578,499,222
608836115,193,267,165,287,585,504,220
608837115,196,280,166,285,595,508,221
608838115,191,290,171,285,601,513,220
608839115,190,297,176,283,610,513,220
608840115,192,306,175,283,621,514,220
608841115,198,305,169,290,641,515,220
608842115,208,316,175,300,654,518,223
608843115,214,332,176,310,650,523,221
608844115,216,349,178,316,646,531,220
608845115,215,364,179,315,648,533,221
608846115,210,371,179,325,655,536,221
608847115,213,372,178,336,658,543,222
608848115,211,371,176,343,670,551,221
608849115,208,368,175,343,677,556,221
608850115,209,372,174,342,683,560,221
608851115,208,397,173,336,690,561,222
608852115,206,416,170,338,691,565,221
608853115,205,421,169,335,688,569,222
608854115,204,420,169,331,680,572,221
608855115,202,417,167,328,670,576,220
608856115,202,412,166,325,657,579,220
608857115,201,411,165,322,646,581,221
608858115,200,409,165,319,632,585,221
608859115,196,405,164,319,623,587,221
608860115,198,399,164,321,609,591,221
608861115,197,394,163,319,597,595,221
608862115,196,389,161,318,588,598,222
608863115,196,385,160,317,579,601,222
608864115,194,378,159,314,570,604,222
608865115,193,374,158,312,563,606,221
608866115,193,369,157,309,554,607,223
608867115,191,364,157,307,548,609,222
608868115,192,359,157,305,541,611,221
608869115,189,355,153,301,533,614,221
608870115,188,350,154,299,526,616,221
608871115,189,346,153,296,519,618,221
608872115,187,342,153,294,513,620,221
608873115,186,341,152,292,504,623,221
608874115,186,333,150,290,498,625,222
608875115,186,330,152,291,490,627,222
608876115,185,325,149,294,485,628,221
608877115,184,325,148,298,478,629,223
608878115,184,320,148,305,470,631,222
608879115,183,313,147,306,463,633,222
608880115,183,310,147,305,455,634,222
608881115,183,307,145,303,448,637,223
608882115,182,303,145,301,443,639,221
608883115,181,299,144,302,437,641,221
608884115,181,296,144,303,439,642,220
608885115,179,294,143,306,436,642,222
608886115,179,290,142,304,433,643,220
608887115,177,287,141,302,440,645,222
608888115,177,283,141,303,442,646,221
608889115,178,280,140,301,439,646,222
608890115,177,278,139,298,429,647,222
608891115,176,276,139,296,426,647,222
608892115,177,273,138,294,431,653,221
608893115,176,269,141,292,439,657,222
608894115,176,267,138,290,444,659,222
608895115,175,265,136,286,442,659,223
608896115,174,263,136,284,438,661,223
608897115,174,258,140,282,433,660,220
608898115,172,257,136,283,425,662,223
608899115,172,254,135,284,423,667,222
608900115,172,251,134,289,425,669,221
608901115,172,249,134,287,422,669,221
608902115,171,249,133,285,420,671,221
608903115,170,245,134,282,412,671,221
608904115,170,243,133,281,406,671,222
608905115,170,241,132,280,402,672,222
608906115,171,239,132,277,393,674,222
608907115,170,236,132,275,392,679,222
608908115,170,234,129,274,387,676,222
608909115,169,235,131,274,380,677,223
608910115,169,236,127,276,381,675,221
608911115,167,239,131,281,391,677,222
608912115,169,242,130,287,396,678,222
608913115,168,242,130,289,393,680,222
608914115,168,244,132,287,386,682,222
608915115,167,243,132,296,394,684,218
608916115,167,245,129,300,403,686,223
608917115,167,253,130,301,399,689,223
608918115,166,268,129,298,394,694,222
608919115,169,275,129,306,385,696,222
608920115,166,277,128,320,383,698,223
608921115,166,275,128,329,381,696,221
608922115,166,272,128,330,375,694,223
608923115,166,269,126,327,372,693,223
608924115,165,266,127,327,364,693,223
608925115,165,264,127,326,360,694,221
608926115,165,261,126,324,355,695,220
608927115,165,259,126,322,349,694,222
608928115,166,257,126,320,344,694,222
608929115,165,253,126,320,338,694,224
608930115,165,251,125,316,334,689,224
608931115,164,249,125,318,330,695,224
608932115,164,247,124,317,329,696,222
608933115,164,245,124,311,327,697,218
608934115,163,243,125,309,326,696,223
608935115,166,241,126,303,325,697,221
608936115,163,238,124,304,325,698,223
608937115,163,237,124,301,325,699,223
608938115,163,233,124,298,324,699,224
608939115,163,232,123,297,321,700,226
608940115,163,231,124,295,320,701,228
608941115,163,227,126,292,318,702,224
608942115,162,231,123,296,316,703,224
608943115,166,225,123,301,310,704,224
608944115,162,224,122,305,308,704,224
608945115,162,222,123,301,304,704,224
608946115,162,220,122,301,298,698,224
608947115,162,218,123,300,294,704,223
608948115,162,217,121,304,297,705,223
608949115,165,218,123,304,307,700,228
608950115,161,214,122,301,323,704,224
608951115,160,213,122,296,343,704,225
608952115,158,212,123,297,360,704,224
608953115,160,210,122,296,366,706,222
608954115,160,208,122,295,368,706,221
608955115,162,208,122,297,360,704,227
608956115,162,207,122,296,361,701,225
608957115,160,204,122,297,358,697,224
608958115,161,204,121,295,353,696,224
608959115,159,203,122,299,350,695,225
608960115,159,201,121,305,357,693,224
608961115,160,200,121,310,365,692,225
608962115,160,200,121,315,373,691,225
608963115,159,199,119,317,375,690,225
608964115,160,198,121,317,370,689,225
608965115,163,197,119,322,365,681,224
608966115,159,196,120,327,370,684,224
608967115,159,196,120,330,376,680,224
608968115,160,195,120,328,376,678,227
608969115,158,194,120,326,373,677,224
608970115,159,198,120,323,376,678,224
608971115,160,204,123,320,374,673,225
608972115,156,214,135,317,372,673,224
608973115,158,224,155,315,370,673,225
608974115,155,233,173,316,365,672,224
608975115,158,243,182,314,359,670,224
608976115,159,248,181,312,352,666,228
608977115,163,246,189,309,348,662,225
608978115,169,249,203,308,342,657,225
608979115,171,260,218,309,338,652,225
608980115,170,274,235,312,332,647,225
608981115,175,305,243,314,328,642,225
608982115,182,323,246,313,328,636,225
608983115,189,325,250,310,326,629,226
608984115,195,323,251,308,324,623,225
608985115,199,321,252,309,322,617,225
608986115,200,321,249,312,316,613,225
608987115,202,316,245,313,312,609,225
608988115,199,313,245,312,308,602,225
608989115,198,310,243,310,305,599,225
608990115,197,305,238,307,300,593,225
608991115,196,304,235,305,300,585,225
608992115,195,299,232,303,300,578,225
608993115,194,296,230,300,298,570,225
608994115,193,293,228,300,294,567,225
608995115,191,290,225,300,291,555,226
608996115,192,287,223,297,286,548,225
608997115,190,286,220,301,282,541,226
608998115,189,280,217,304,279,533,226
608999115,187,278,211,306,274,524,225
609000115,189,272,213,305,269,517,225
609001115,188,273,211,305,265,507,225
609002115,187,269,209,307,264,498,222
609003115,186,262,207,306,258,490,224
609004115,187,264,204,304,254,482,222
609005115,184,262,202,301,252,474,225
609006115,184,259,200,301,246,467,226
609007115,184,257,198,308,243,458,226
609008115,182,253,197,312,238,452,226
609009115,182,252,195,313,235,443,225
609010115,182,249,194,312,232,437,226
609011115,177,246,192,312,232,432,226
609012115,181,245,192,311,226,428,226
609013115,181,242,187,305,223,425,226
609014115,179,241,188,307,220,422,226
609015115,179,238,184,305,218,420,225
609016115,179,234,183,304,214,418,226
609017115,181,234,182,303,212,410,226
609018115,177,233,180,303,208,406,226
609019115,178,230,179,300,207,402,226
609020115,179,229,178,300,204,403,226
609021115,175,227,175,298,202,405,226
609022115,175,225,174,299,199,407,226
609023115,174,225,173,297,198,406,226
609024115,175,222,172,295,194,404,226
609025115,175,220,170,292,192,408,226
609026115,173,219,169,290,188,412,226
609027115,172,217,168,288,187,418,226
609028115,173,215,168,285,185,420,226
609029115,171,214,166,285,184,425,226
609030115,174,212,165,285,184,426,226
609031115,172,211,164,288,180,426,226
609032115,171,210,163,286,177,429,226
609033115,170,209,162,284,176,433,226
609034115,170,208,160,288,173,437,227
609035115,170,205,160,293,171,440,226
609036115,169,204,157,295,169,442,226
609037115,167,203,156,302,167,441,227
609038115,169,202,156,305,165,445,226
609039115,168,200,155,303,164,444,226
609040115,167,200,154,299,162,453,226
609041115,168,198,153,300,161,460,227
609042115,167,197,152,295,159,469,226
609043115,167,197,153,298,157,477,226
609044115,167,195,151,306,155,485,226
609045115,167,194,151,308,153,491,226
609046115,166,193,149,308,152,498,228
609047115,167,193,149,306,151,503,226
609048115,166,191,148,302,152,508,226
609049115,166,190,148,302,148,515,230
609050115,163,189,147,302,147,521,227
609051115,165,188,146,300,146,528,226
609052115,166,182,146,299,144,534,225
609053115,160,187,145,296,142,540,227
609054115,166,186,144,294,141,545,220
609055115,165,185,140,292,140,547,227
609056115,165,184,143,293,138,559,226
609057115,164,183,141,291,138,566,226
609058115,164,183,140,289,140,569,226
609059115,164,181,141,288,140,572,226
609060115,161,181,141,287,143,577,229
609061115,163,180,139,284,143,583,226
609062115,163,179,139,282,141,590,227
609063115,163,179,140,279,140,596,226
609064115,162,178,137,276,141,600,227
609065115,163,177,137,277,140,604,223
609066115,163,177,136,276,139,607,227
609067115,165,177,136,276,138,609,227
609068115,163,176,136,278,138,612,227
609069115,162,176,135,279,138,612,227
609070115,161,175,136,277,138,613,226
609071115,161,173,135,276,142,613,227
609072115,157,173,135,276,143,614,227
609073115,161,172,134,274,146,613,226
609074115,161,172,134,272,149,614,227
609075115,159,171,133,271,151,613,227
609076115,161,171,133,268,154,616,227
609077115,160,170,133,268,155,617,227
609078115,161,169,132,266,154,617,229
609079115,163,169,132,268,153,615,227
609080115,164,169,132,263,152,612,226
609081115,161,168,131,261,147,610,227
609082115,164,165,131,260,153,608,227
609083115,164,167,131,259,154,605,227
609084115,164,167,131,257,157,603,227
609085115,165,167,131,256,161,601,227
609086115,168,167,130,256,163,598,227
609087115,171,166,130,255,163,591,227
609088115,171,166,130,253,163,584,227
609089115,172,165,129,252,165,577,227
609090115,172,166,129,250,168,568,227
609091115,170,165,128,249,169,560,227
609092115,175,165,128,248,170,553,227
609093115,169,164,129,247,173,547,227
609094115,170,163,128,246,173,543,227
609095115,170,164,125,244,172,534,226
609096115,169,163,128,244,176,527,227
609097115,169,163,128,243,177,518,228
609098115,168,163,128,243,179,512,227
609099115,169,162,127,242,179,505,228
609100115,169,161,127,236,182,500,228
609101115,170,162,126,242,184,490,225
609102115,168,161,126,241,185,483,227
609103115,168,161,125,239,186,474,227
609104115,167,161,125,238,185,468,227
609105115,168,160,126,237,188,459,227
609106115,166,160,130,236,186,452,227
609107115,165,160,144,234,185,444,227
609108115,166,159,157,234,187,438,227
609109115,166,159,168,232,187,430,227
609110115,166,162,172,234,189,424,227
609111115,166,164,171,231,192,419,228
609112115,168,167,172,230,197,411,227
609113115,167,172,176,230,201,405,227
609114115,170,177,182,229,206,400,228
609115115,169,187,189,228,211,393,229
609116115,168,201,196,227,219,387,231
609117115,168,202,201,227,227,381,237
609118115,168,214,203,228,233,375,235
609119115,168,226,205,226,242,370,237
609120115,167,232,204,225,248,364,239
609121115,167,234,203,224,254,359,242
609122115,170,237,207,222,261,353,244
609123115,167,245,209,221,268,348,246
609124115,166,260,210,222,275,344,247
609125115,166,271,215,219,277,339,248
609126115,167,273,224,220,284,334,248
609127115,168,269,226,219,291,329,249
609128115,165,267,224,219,299,325,249
609129115,169,264,229,218,303,318,246
609130115,171,265,245,218,307,315,248
609131115,169,267,265,217,308,311,249
609132115,168,265,283,217,313,308,247
609133115,167,263,294,217,317,304,247
609134115,167,266,298,217,318,299,247
609135115,167,269,309,216,322,296,246
609136115,166,271,313,215,324,295,246
609137115,167,267,316,214,325,292,245
609138115,172,265,313,214,327,289,245
609139115,179,263,309,214,328,286,243
609140115,182,264,305,214,331,288,242
609141115,181,263,300,213,331,284,243
609142115,184,268,296,213,327,288,242
609143115,185,274,293,212,322,297,241
609144115,184,287,289,212,318,290,245
609145115,184,299,289,212,317,289,242
609146115,185,316,301,211,320,284,241
609147115,183,339,320,213,319,282,241
609148115,183,354,333,215,315,280,240
609149115,182,360,333,216,310,278,240
609150115,181,355,332,215,305,275,240
609151115,180,362,327,211,300,273,240
609152115,182,384,323,214,295,268,240
609153115,182,407,323,213,294,261,239
609154115,185,418,324,213,289,263,240
609155115,187,427,332,213,285,259,238
609156115,191,428,337,214,283,256,238
609157115,194,423,338,212,286,255,238
609158115,194,417,336,215,296,258,237
609159115,194,412,333,215,310,260,238
609160115,193,406,328,214,328,259,238
609161115,194,401,325,215,343,261,237
609162115,190,395,330,219,354,254,237
609163115,190,390,326,225,361,251,236
609164115,193,388,324,225,368,248,236
609165115,188,389,320,224,374,246,236
609166115,188,384,315,225,378,243,236
609167115,189,386,310,227,382,243,236
609168115,194,389,307,231,385,242,236
609169115,199,387,301,233,384,241,235
609170115,199,386,298,233,385,240,236
609171115,198,392,294,232,386,239,235
609172115,198,389,294,232,385,237,236
609173115,201,384,293,232,383,235,235
609174115,202,381,297,235,384,234,235
609175115,202,378,306,236,382,235,235
609176115,202,374,308,237,380,236,234
609177115,200,369,310,236,377,237,234
609178115,199,363,311,235,372,241,235
609179115,199,360,309,235,367,240,234
609180115,201,357,307,234,363,241,234
609181115,196,352,301,233,366,238,234
609182115,195,347,297,231,371,236,234
609183115,195,343,293,231,375,234,233
609184115,194,339,290,233,373,233,234
609185115,193,335,285,232,368,237,234
609186115,190,330,281,232,362,244,233
609187115,192,327,277,232,356,246,234
609188115,191,323,275,234,350,239,233
609189115,189,319,269,234,347,241,234
609190115,189,314,269,234,346,238,233
609191115,189,311,263,228,341,236,233
609192115,188,307,260,234,347,238,234
609193115,187,304,254,233,365,238,236
609194115,186,301,257,234,388,244,233
609195115,185,298,267,237,407,252,233
609196115,183,295,278,241,425,255,234
609197115,184,290,283,243,438,260,232
609198115,185,297,282,243,446,265,232
609199115,183,304,280,245,447,267,232
609200115,185,311,282,244,440,272,233
609201115,188,309,289,242,432,274,232
609202115,189,315,296,242,425,275,232
609203115,189,325,301,240,417,274,232
609204115,188,335,302,241,409,274,231
609205115,189,336,301,244,403,274,232
609206115,196,339,301,245,396,273,232
609207115,201,356,296,248,402,273,232
609208115,205,377,292,247,424,272,231
609209115,205,388,288,247,459,273,232
609210115,206,390,282,248,499,268,231
609211115,206,388,280,247,534,265,232
609212115,206,386,276,247,553,264,231
609213115,205,378,273,248,553,264,231
609214115,203,373,269,247,545,264,231
609215115,202,369,266,247,543,265,232
609216115,200,364,263,246,535,264,231
609217115,199,359,260,245,526,263,231
609218115,199,355,255,246,517,264,231
609219115,198,350,252,245,525,266,231
609220115,198,345,249,243,549,272,229
609221115,196,341,246,244,588,279,231
609222115,195,338,243,244,626,284,230
609223115,195,333,240,247,663,291,231
609224115,193,329,237,249,696,297,230
609225115,192,325,233,249,735,303,231
609226115,191,322,232,251,753,308,230
609227115,193,317,229,248,763,312,230
609228115,195,317,227,248,766,316,229
609229115,200,317,225,246,765,317,229
609230115,199,318,222,245,757,318,229
609231115,199,313,220,245,743,318,230
609232115,198,310,219,244,732,319,230
609233115,199,309,216,243,730,316,230
609234115,201,306,210,243,733,314,230
609235115,203,302,211,242,738,311,229
609236115,201,300,209,243,734,308,230
609237115,200,297,207,241,731,310,227
609238115,200,296,204,240,720,316,230
609239115,198,294,203,239,729,316,229
609240115,197,291,200,241,732,321,229
609241115,197,288,199,241,727,328,229
609242115,196,284,197,241,720,334,229
609243115,195,282,193,240,708,332,229
609244115,194,279,194,236,699,340,229
609245115,193,276,192,239,694,340,229
609246115,192,275,189,237,682,337,228
609247115,190,272,187,236,669,332,229
609248115,190,268,189,244,657,329,229
609249115,189,266,184,248,646,327,230
609250115,187,264,183,250,633,329,229
609251115,187,261,181,248,625,328,229
609252115,187,259,180,249,611,326,229
609253115,187,258,179,253,600,326,228
609254115,186,252,177,258,588,325,228
609255115,185,251,176,264,578,325,227
609256115,185,248,174,268,571,323,227
609257115,183,246,172,267,562,319,228
609258115,183,246,171,265,551,314,227
609259115,183,241,170,269,538,314,226
609260115,182,240,169,274,531,311,228
609261115,184,233,169,277,523,320,228
609262115,181,236,166,281,514,322,227
609263115,180,234,165,277,505,323,229
609264115,179,231,166,274,496,323,226
609265115,180,231,163,274,487,324,229
609266115,178,228,162,272,490,324,229
609267115,179,227,161,271,495,323,229
609268115,178,226,161,270,501,321,228
609269115,177,224,160,269,503,318,227
609270115,177,221,159,268,495,321,229
609271115,177,219,156,267,486,324,228
609272115,176,218,156,264,481,328,228
609273115,174,216,155,265,481,331,228
609274115,175,215,154,265,481,332,224
609275115,175,214,154,263,475,331,230
609276115,171,212,153,261,470,328,228
609277115,173,211,152,261,473,324,227
609278115,172,210,151,258,492,320,227
609279115,173,208,150,257,532,316,230
609280115,176,207,149,254,579,313,227
609281115,171,206,149,253,625,307,227
609282115,171,204,148,252,662,305,227
609283115,171,202,147,250,684,300,226
609284115,171,201,146,249,678,302,227
609285115,171,200,146,248,695,305,227
609286115,170,199,145,247,722,302,227
609287115,173,199,144,247,742,300,226
609288115,170,197,144,248,753,305,226
609289115,166,197,144,249,754,308,227
609290115,170,195,143,249,755,317,227
609291115,170,195,141,248,764,321,226
609292115,169,194,141,246,772,324,227
609293115,169,193,141,249,772,325,226
609294115,169,192,141,246,763,326,229
609295115,169,191,139,245,771,321,226
609296115,168,192,139,244,786,316,228
609297115,169,192,139,243,786,312,227
609298115,169,190,139,243,774,308,226
609299115,162,193,138,241,788,306,226
609300115,168,193,138,240,809,304,226
609301115,167,193,138,238,833,312,224
609302115,170,191,138,238,860,322,224
609303115,167,192,136,237,887,333,222
609304115,169,187,136,235,906,344,229
609305115,169,190,136,235,914,350,228
609306115,166,189,134,235,914,353,224
609307115,167,189,134,234,906,356,233
609308115,167,187,136,233,897,357,236
609309115,166,190,133,237,884,358,237
609310115,167,186,133,238,867,358,237
609311115,166,185,135,237,851,358,235
609312115,165,185,132,236,839,358,237
609313115,168,187,132,235,824,357,234
609314115,165,183,132,234,810,352,235
609315115,165,183,127,234,796,348,234
609316115,165,182,131,235,784,344,234
609317115,165,181,131,235,769,341,233
609318115,163,181,130,235,754,337,234
609319115,163,180,130,236,740,333,233
609320115,166,179,129,237,726,329,233
609321115,161,179,129,236,712,326,233
609322115,163,177,130,235,706,324,232
609323115,164,178,128,233,703,327,232
609324115,163,178,128,234,700,319,230
609325115,164,176,128,234,694,315,230
609326115,164,177,128,234,694,312,231
609327115,163,176,128,234,692,310,230
609328115,164,175,125,232,693,311,231
609329115,163,176,127,231,691,312,230
609330115,164,175,127,231,679,314,229
609331115,163,174,126,230,667,314,228
609332115,162,173,126,228,657,315,228
609333115,162,172,126,230,645,313,229
609334115,163,173,124,229,633,310,232
609335115,162,172,125,226,623,307,228
609336115,162,171,124,227,621,303,227
609337115,162,171,124,225,623,303,230
609338115,162,169,122,225,632,301,236
609339115,163,170,124,223,654,298,235
609340115,161,171,123,222,679,293,236
609341115,162,169,124,222,710,295,238
609342115,161,168,123,222,732,287,237
609343115,162,169,123,223,736,282,235
609344115,162,169,123,221,725,280,235
609345115,161,168,123,220,733,281,236
609346115,160,167,123,220,753,288,243
609347115,160,167,125,221,771,294,248
609348115,160,167,122,220,791,303,249
609349115,161,166,122,220,818,315,250
609350115,161,166,125,219,841,325,250
609351115,161,166,122,218,855,331,246
609352115,160,160,122,218,858,332,249
609353115,159,165,122,218,856,334,248
609354115,160,165,122,219,852,333,249
609355115,159,164,122,219,844,332,247
609356115,158,164,122,219,838,330,248
609357115,158,164,122,218,832,328,248
609358115,160,165,122,218,823,327,257
609359115,160,164,122,220,813,329,264
609360115,159,163,122,219,808,329,267
609361115,159,162,122,219,810,329,269
609362115,162,163,121,219,805,328,269
609363115,167,163,122,218,795,325,270
609364115,175,163,122,218,803,322,273
609365115,179,162,122,218,814,316,270
609366115,184,163,123,217,814,312,272
609367115,184,162,128,217,802,309,278
609368115,191,162,130,218,787,307,280
609369115,211,162,133,217,772,302,282
609370115,221,162,132,216,756,299,283
609371115,221,161,132,216,741,295,285
609372115,220,162,132,212,727,291,287
609373115,220,161,136,216,714,288,289
609374115,218,161,133,219,699,285,290
609375115,216,162,132,219,686,282,293
609376115,215,162,132,219,674,278,293
609377115,214,162,132,219,661,282,294
609378115,213,161,132,218,647,282,296
609379115,211,162,131,217,635,282,298
609380115,211,161,132,217,624,279,299
609381115,210,161,131,218,611,279,302
609382115,207,161,131,218,599,274,302
609383115,205,160,130,219,589,272,305
609384115,203,160,130,220,589,269,310
609385115,205,159,127,221,602,266,307
609386115,203,163,130,221,626,266,309
609387115,200,160,129,221,648,269,310
609388115,200,160,129,220,675,270,311
609389115,199,160,128,222,690,266,312
609390115,199,159,128,223,704,263,313
609391115,195,159,128,223,708,261,314
609392115,197,158,127,226,700,258,314
609393115,196,158,127,230,720,260,313
609394115,195,161,126,232,743,261,314
609395115,193,159,126,231,762,270,314
609396115,193,157,125,230,783,276,315
609397115,191,154,125,231,806,280,316
609398115,192,157,125,232,817,282,318
609399115,191,152,125,231,813,283,319
609400115,189,157,125,230,796,283,322
609401115,189,154,125,229,788,288,324
609402115,187,156,125,232,780,290,326
609403115,188,155,125,232,778,287,329
609404115,187,153,124,227,767,284,330
609405115,186,155,124,231,753,282,331
609406115,186,158,124,235,743,282,332
609407115,185,155,124,239,732,285,335
609408115,184,155,123,238,721,287,337
609409115,184,158,123,240,707,290,339
609410115,183,155,125,242,698,287,337
609411115,182,154,123,242,692,284,340
609412115,182,156,123,241,684,282,342
609413115,185,154,123,240,673,279,343
609414115,182,154,122,239,660,274,344
609415115,180,154,122,235,650,273,345
609416115,181,154,122,236,641,272,346
609417115,179,153,122,236,630,268,347
609418115,179,154,122,236,617,264,349
609419115,179,154,122,234,605,262,350
609420115,178,153,121,234,598,260,352
609421115,177,154,122,235,583,258,351
609422115,172,148,121,241,572,256,353
609423115,178,152,121,248,560,258,355
609424115,178,153,121,251,551,252,355
609425115,179,152,121,250,540,252,356
609426115,180,152,121,249,537,252,358
609427115,182,153,121,249,535,252,358
609428115,184,152,122,259,529,252,357
609429115,182,153,122,269,518,251,360
609430115,182,152,121,274,508,251,360
609431115,183,152,121,280,500,252,361
609432115,183,152,121,291,491,252,362
609433115,181,152,122,300,489,252,362
609434115,180,151,121,311,483,251,362
609435115,180,152,120,324,475,249,363
609436115,180,152,118,329,467,246,364
609437115,179,152,120,347,469,243,364
609438115,179,151,122,380,475,240,365
609439115,179,151,120,395,481,238,365
609440115,178,152,121,402,483,236,366
609441115,177,149,122,407,482,233,367
609442115,177,152,120,413,479,231,369
609443115,177,151,120,416,475,228,364
609444115,176,151,120,414,477,222,368
609445115,175,151,120,413,493,225,369
609446115,174,151,120,413,514,221,369
609447115,173,151,120,412,530,220,369
609448115,174,152,119,409,535,219,369
609449115,172,149,119,410,527,219,370
609450115,172,151,119,407,537,217,371
609451115,171,150,119,404,550,218,371
609452115,172,150,119,398,560,212,372
609453115,172,149,119,394,565,210,373
609454115,168,151,119,390,559,209,369
609455115,170,152,117,389,550,206,374
609456115,170,150,119,387,541,204,378
609457115,169,151,119,383,533,203,375
609458115,170,150,119,380,538,201,376
609459115,170,151,117,379,559,203,374
609460115,169,151,118,374,578,211,376
609461115,169,150,118,370,597,217,377
609462115,169,151,118,366,611,221,377
609463115,169,150,118,362,616,222,379
609464115,168,150,118,359,615,222,379
609465115,168,150,118,356,608,220,379
609466115,168,148,117,352,601,219,382
609467115,167,150,118,348,593,217,381
609468115,167,150,118,346,587,215,382
609469115,167,150,120,345,580,209,382
609470115,170,150,121,343,570,213,383
609471115,167,150,122,340,559,214,384
609472115,166,150,123,344,549,209,383
609473115,166,149,125,346,540,207,384
609474115,166,149,126,347,530,207,385
609475115,167,148,127,344,526,205,385
609476115,166,149,125,341,517,204,385
609477115,166,150,125,338,510,204,386
609478115,166,149,125,336,497,203,386
609479115,166,148,123,333,488,202,390
609480115,163,149,128,329,480,200,385
609481115,180,149,125,327,473,199,387
609482115,193,150,124,323,464,197,387
609483115,214,149,124,321,458,196,388
609484115,237,149,125,318,452,195,388
609485115,247,150,131,314,448,194,388
609486115,242,149,138,316,442,193,388
609487115,255,150,146,315,435,189,389
609488115,286,151,154,313,426,188,388
609489115,325,151,160,311,419,186,389
609490115,358,151,160,309,412,185,388
609491115,365,148,160,306,407,186,388
609492115,361,150,160,304,410,183,389
609493115,362,152,166,302,418,183,393
609494115,362,156,176,299,449,182,389
609495115,360,159,184,297,494,180,389
609496115,355,159,185,294,551,177,389
609497115,352,159,184,295,607,186,389
609498115,347,159,182,294,632,188,390
609499115,342,159,182,292,633,186,390
609500115,339,159,180,290,665,188,390
609501115,335,160,179,288,705,190,390
609502115,330,158,178,286,745,187,390
609503115,323,159,176,284,772,186,390
609504115,323,158,175,284,796,189,391
609505115,320,159,173,285,809,194,391
609506115,315,160,171,284,813,195,392
609507115,311,157,171,282,813,196,392
609508115,308,157,170,282,808,196,391
609509115,305,157,167,286,799,198,391
609510115,300,157,167,288,791,196,392
609511115,301,157,166,285,777,194,391
609512115,295,156,164,284,762,193,392
609513115,292,156,166,282,747,190,394
609514115,292,156,163,281,737,189,391
609515115,286,156,161,279,724,188,392
609516115,284,154,160,277,710,185,392
609517115,280,155,159,277,696,187,392
609518115,278,154,158,274,683,190,392
609519115,276,155,157,271,672,186,392
609520115,273,150,157,269,659,186,395
609521115,269,155,156,269,648,185,393
609522115,268,155,155,268,637,185,393
609523115,265,154,155,267,627,183,394
609524115,262,154,154,265,617,182,394
609525115,260,155,153,264,607,183,394
609526115,262,154,153,262,596,182,393
609527115,256,153,151,263,584,180,394
609528115,253,154,151,266,573,179,393
609529115,251,152,150,267,562,178,394
609530115,253,154,150,272,552,173,394
609531115,256,153,150,280,542,176,395
609532115,255,153,150,277,533,173,394
609533115,251,153,150,279,526,172,397
609534115,250,152,149,282,517,171,395
609535115,249,152,149,283,508,171,396
609536115,252,153,148,288,499,169,395
609537115,250,152,147,293,491,171,394
609538115,247,152,144,294,484,167,394
609539115,246,153,147,292,475,170,390
609540115,244,153,146,291,467,169,394
609541115,243,154,147,297,458,169,391
609542115,241,152,145,298,449,168,394
609543115,240,153,144,298,442,168,394
609544115,238,152,144,296,434,167,393
609545115,235,153,145,293,426,166,392
609546115,234,152,142,292,416,165,393
609547115,232,153,142,291,412,164,392
609548115,230,152,140,289,406,163,392
609549115,229,153,140,289,406,165,392
609550115,227,153,140,289,409,170,392
609551115,226,152,139,293,407,166,391
609552115,227,151,139,296,401,168,391
609553115,222,152,137,296,394,167,391
609554115,220,151,138,292,392,166,391
609555115,219,152,136,292,394,164,390
609556115,220,152,137,290,398,164,389
609557115,217,151,137,283,405,163,387
609558115,215,151,136,285,406,162,388
609559115,214,151,135,284,402,161,387
609560115,213,150,135,281,395,160,387
609561115,211,151,135,279,396,160,386
609562115,210,152,135,278,397,158,387
609563115,209,151,134,276,397,157,386
609564115,208,151,133,274,396,157,385
609565115,207,151,133,273,395,155,384
609566115,205,151,133,270,391,155,385
609567115,205,150,132,268,389,155,384
609568115,204,151,132,266,387,152,385
609569115,202,150,132,264,385,152,384
609570115,202,150,131,264,381,152,384
609571115,201,150,132,262,376,152,378
609572115,199,150,132,260,371,150,384
609573115,199,150,131,259,364,145,384
609574115,200,150,132,258,358,150,382
609575115,199,150,135,256,352,150,382
609576115,214,152,141,253,345,149,379
609577115,238,151,149,252,342,148,383
609578115,262,152,159,251,337,147,383
609579115,278,151,169,249,331,146,381
609580115,280,154,179,248,325,146,380
609581115,280,151,185,246,321,149,379
609582115,298,153,186,244,315,145,378
609583115,320,155,185,245,311,145,379
609584115,322,153,190,243,305,143,378
609585115,318,152,199,242,301,144,377
609586115,320,154,210,241,293,145,376
609587115,334,155,214,240,292,145,378
609588115,350,151,215,242,287,144,377
609589115,359,156,211,246,290,146,377
609590115,360,155,210,248,297,148,376
609591115,359,156,210,247,300,150,377
609592115,370,153,211,250,296,149,377
609593115,391,155,211,246,298,151,376
609594115,410,156,210,246,300,151,375
609595115,411,155,208,244,301,152,375
609596115,406,155,210,244,298,151,373
609597115,400,154,213,243,294,151,376
609598115,394,158,215,242,290,152,373
609599115,390,154,215,241,285,148,377
609600115,387,154,215,244,280,149,374
609601115,383,154,215,246,276,149,373
609602115,378,154,214,247,272,148,372
609603115,373,154,215,248,267,151,372
609604115,369,154,210,247,263,146,372
609605115,367,154,208,246,261,147,371
609606115,364,154,206,247,257,146,368
609607115,361,153,202,244,252,145,369
609608115,366,154,202,243,248,145,369
609609115,361,153,200,241,245,144,369
609610115,359,154,198,241,244,145,368
609611115,350,153,197,240,244,143,366
609612115,348,153,194,238,242,143,369
609613115,343,154,192,237,239,143,365
609614115,341,152,192,235,235,144,364
609615115,336,153,189,235,232,144,364
609616115,331,153,187,233,229,143,364
609617115,328,156,186,233,226,142,361
609618115,324,153,184,232,226,141,363
609619115,320,153,183,232,230,141,362
609620115,316,152,181,231,234,140,362
609621115,310,152,183,230,232,141,361
609622115,308,152,178,229,232,140,361
609623115,310,152,177,228,242,139,360
609624115,317,152,176,229,248,138,359
609625115,331,153,175,230,248,139,362
609626115,344,152,179,227,246,139,359
609627115,360,152,186,228,245,142,359
609628115,361,153,195,229,245,139,360
609629115,357,155,208,226,243,138,358
609630115,356,158,225,225,238,138,362
609631115,360,161,242,227,238,138,359
609632115,357,162,255,230,237,137,358
609633115,357,163,257,234,234,137,359
609634115,355,164,260,237,231,138,358
609635115,354,164,261,239,228,139,357
609636115,363,163,259,238,225,138,356
609637115,361,165,269,240,222,135,355
609638115,356,164,284,237,221,138,355
609639115,350,159,293,239,224,137,354
609640115,357,166,300,241,224,137,354
609641115,353,167,305,240,222,137,356
609642115,349,167,307,241,218,137,353
609643115,348,167,309,243,216,137,351
609644115,346,166,307,245,213,138,351
609645115,343,166,305,244,211,139,352
609646115,338,165,301,243,206,136,349
609647115,335,165,296,241,204,136,348
609648115,328,165,293,241,201,136,348
609649115,327,165,289,238,205,135,347
609650115,323,165,285,239,205,135,345
609651115,323,164,282,237,203,135,346
609652115,315,164,277,236,209,135,345
609653115,313,164,274,235,224,136,345
609654115,308,164,269,235,237,131,343
609655115,305,164,266,234,246,137,343
609656115,304,167,264,237,248,136,342
609657115,299,162,260,234,246,137,342
609658115,295,163,258,233,244,137,341
609659115,292,162,252,233,240,137,340
609660115,290,162,250,231,242,137,340
609661115,289,162,247,231,247,136,337
609662115,285,161,244,230,259,136,339
609663115,282,161,241,229,261,137,338
609664115,280,161,239,228,258,138,338
609665115,277,162,235,227,253,138,337
609666115,275,161,232,226,250,137,335
609667115,272,161,230,225,248,136,336
609668115,268,159,228,225,250,137,335
609669115,266,159,225,224,253,137,334
609670115,267,159,219,223,250,138,334
609671115,274,158,221,223,246,140,333
609672115,298,159,223,222,253,144,333
609673115,311,159,228,221,278,147,332
609674115,312,159,234,220,312,147,332
609675115,316,160,239,220,339,146,331
609676115,338,160,243,220,359,146,330
609677115,349,160,244,219,372,145,327
609678115,347,159,242,218,380,145,329
609679115,361,160,240,217,383,144,328
609680115,377,158,236,217,386,144,328
609681115,378,159,235,217,384,143,328
609682115,385,160,240,220,380,140,327
609683115,412,162,246,225,375,142,326
609684115,443,161,250,220,367,142,326
609685115,459,162,249,222,363,142,325
609686115,454,162,247,225,357,141,324
609687115,455,161,251,224,352,140,323
609688115,451,162,261,229,345,141,322
609689115,446,164,265,230,340,140,322
609690115,439,164,267,233,334,139,321
609691115,432,165,269,233,329,140,320
609692115,426,166,267,233,324,140,320
609693115,420,166,263,232,318,140,319
609694115,415,166,261,231,313,139,319
609695115,416,165,260,231,309,140,318
609696115,421,165,260,230,307,140,317
609697115,418,166,254,230,310,140,316
609698115,411,164,255,229,307,140,315
609699115,409,164,261,228,307,139,314
609700115,407,164,263,230,305,139,314
609701115,402,164,260,229,305,139,313
609702115,395,164,258,228,300,139,312
609703115,389,163,252,227,297,141,312
609704115,386,163,251,227,295,142,310
609705115,380,162,247,227,298,143,305
609706115,376,163,245,226,306,142,308
609707115,371,163,243,226,312,143,307
609708115,366,163,242,225,313,142,306
609709115,361,163,242,224,308,141,305
609710115,356,163,240,223,306,142,305
609711115,350,163,238,224,304,147,305
609712115,347,163,234,223,321,149,303
609713115,344,162,233,225,351,149,304
609714115,341,162,231,223,383,149,304
609715115,336,161,229,223,409,148,303
609716115,331,162,227,221,428,148,303
609717115,328,157,224,221,437,147,304
609718115,324,161,223,220,434,147,304
609719115,321,161,219,221,428,147,305
609720115,319,160,216,223,440,146,304
609721115,320,160,214,223,461,146,304
609722115,318,159,213,221,490,146,304
609723115,315,161,209,221,517,150,302
609724115,312,160,208,221,538,152,304
609725115,309,159,203,221,552,153,304
609726115,306,159,205,222,562,152,303
609727115,303,159,201,221,566,151,301
609728115,299,159,199,222,564,152,303
609729115,297,159,197,221,555,151,303
609730115,294,158,196,222,549,151,303
609731115,290,156,194,226,539,151,303
609732115,289,158,193,226,535,150,301
609733115,295,158,190,226,528,150,302
609734115,305,157,188,226,519,149,301
609735115,308,157,187,222,517,148,302
609736115,305,156,188,224,515,144,300
609737115,302,156,192,223,508,147,300
609738115,298,156,195,222,506,148,301
609739115,304,156,199,221,516,149,299
609740115,316,155,202,219,532,149,298
609741115,326,155,203,221,565,150,298
609742115,328,154,204,220,605,150,297
609743115,332,155,203,219,624,150,296
609744115,330,155,201,219,626,150,296
609745115,343,156,200,219,615,149,296
609746115,373,156,201,223,616,149,296
609747115,394,156,204,225,633,149,296
609748115,394,156,202,227,663,148,295
609749115,399,156,201,229,696,148,297
609750115,419,155,203,228,723,147,298
609751115,439,157,204,227,740,149,297
609752115,458,159,210,230,753,147,296
609753115,469,158,205,231,759,148,296
609754115,468,158,203,235,759,147,295
609755115,467,158,203,235,758,151,295
609756115,462,158,208,238,748,151,296
609757115,458,159,212,237,742,150,294
609758115,451,161,215,237,731,150,294
609759115,443,161,213,236,718,150,294
609760115,438,159,212,236,704,149,294
609761115,433,161,210,235,691,148,293
609762115,426,162,208,235,689,150,291
609763115,419,160,205,234,700,155,295
609764115,421,160,203,233,723,155,289
609765115,436,160,200,231,751,156,290
609766115,455,160,201,233,785,156,291
609767115,466,160,204,232,809,155,290
609768115,466,160,210,232,818,156,294
609769115,461,162,213,234,805,160,291
609770115,477,164,217,233,811,165,291
609771115,491,163,218,232,830,170,288
609772115,490,163,218,232,843,170,291
609773115,482,162,217,232,848,168,291
609774115,477,162,217,231,856,170,291
609775115,470,162,219,231,862,169,290
609776115,463,163,219,233,860,168,290
609777115,456,163,218,230,847,168,290
609778115,449,163,216,232,839,169,290
609779115,442,164,213,228,844,173,290
609780115,436,164,211,228,859,168,291
609781115,430,163,209,227,877,168,292
609782115,425,163,206,227,888,167,293
609783115,418,166,205,227,883,168,292
609784115,412,163,202,226,866,169,293
609785115,402,162,200,226,849,172,294
609786115,402,162,199,227,839,171,294
609787115,398,161,197,229,825,165,294
609788115,399,162,195,228,811,167,295
609789115,389,161,194,228,799,165,295
609790115,389,161,194,227,784,165,296
609791115,390,161,195,226,769,170,297
609792115,388,160,200,226,765,176,297
609793115,381,160,204,225,775,178,298
609794115,381,160,208,224,790,177,297
609795115,397,160,211,224,802,178,298
609796115,412,159,210,226,816,179,299
609797115,418,159,208,230,820,180,299
609798115,420,160,210,232,823,182,299
609799115,413,157,214,232,824,184,299
609800115,407,160,215,231,822,184,299
609801115,401,159,211,229,812,183,300
609802115,395,160,210,231,799,181,299
609803115,395,159,208,234,783,180,299
609804115,408,159,206,239,771,179,298
609805115,418,158,204,240,763,178,299
609806115,416,158,202,239,755,177,298
609807115,411,158,201,240,744,175,298
609808115,406,158,203,241,732,175,298
609809115,400,158,211,241,719,179,297
609810115,400,158,216,240,705,186,297
609811115,414,158,219,238,701,182,297
609812115,430,158,219,237,698,180,296
609813115,426,157,217,236,690,179,295
609814115,430,157,222,235,678,179,294
609815115,437,157,235,237,671,177,294
609816115,437,160,245,233,660,178,294
609817115,432,160,248,233,647,180,291
609818115,425,160,248,231,634,179,292
609819115,421,160,243,231,627,178,291
609820115,414,160,243,230,633,176,291
609821115,408,160,240,229,645,176,290
609822115,402,158,237,229,660,175,289
609823115,396,159,234,229,674,175,290
609824115,391,159,232,231,684,175,289
609825115,387,162,230,232,681,173,289
609826115,382,157,227,232,670,172,288
609827115,378,157,222,232,672,171,288
609828115,372,157,221,231,668,173,285
609829115,368,157,219,233,658,175,285
609830115,362,158,217,238,647,176,285
609831115,358,157,215,243,634,175,286
609832115,354,157,213,243,623,180,284
609833115,348,156,212,247,612,179,284
609834115,345,156,211,247,608,178,283
609835115,341,157,210,244,611,177,282
609836115,336,156,209,246,614,177,282
609837115,333,159,208,246,621,176,282
609838115,328,156,205,245,632,174,281
609839115,324,156,203,244,645,173,282
609840115,321,156,201,243,651,172,281
609841115,317,156,200,242,657,173,282
609842115,311,156,198,241,653,175,282
609843115,310,156,196,239,643,177,283
609844115,307,155,195,241,634,180,281
609845115,304,155,195,246,620,179,282
609846115,300,155,190,246,619,178,282
609847115,299,155,189,251,627,178,281
609848115,294,155,187,250,645,176,282
609849115,290,153,186,248,658,176,282
609850115,291,154,183,248,674,174,283
609851115,284,154,183,247,690,173,281
609852115,282,154,183,251,702,170,282
609853115,280,154,182,258,707,173,281
609854115,276,154,179,265,711,179,282
609855115,274,154,177,273,704,184,279
609856115,272,153,176,287,695,188,282
609857115,268,153,174,312,700,192,283
609858115,266,153,173,341,711,188,283
609859115,264,153,172,346,728,187,284
609860115,261,153,170,368,754,186,285
609861115,259,153,169,388,776,185,285
609862115,257,154,168,386,789,184,283
609863115,257,154,167,392,801,183,289
609864115,264,155,166,390,803,182,292
609865115,271,156,165,399,794,180,290
609866115,280,153,165,406,779,181,290
609867115,287,153,163,406,762,181,289
609868115,295,154,166,402,748,180,290
609869115,297,157,164,398,736,179,288
609870115,297,152,164,393,725,179,287
609871115,294,154,164,390,712,178,286
609872115,290,154,162,390,705,178,284
609873115,288,153,162,393,708,177,284
609874115,284,154,162,396,721,175,282
609875115,281,154,161,399,742,173,280
609876115,279,154,160,398,769,172,278
609877115,276,153,160,394,790,172,278
609878115,275,154,158,387,801,171,276
609879115,273,153,159,386,796,171,276
609880115,271,153,157,385,787,174,274
609881115,268,152,156,377,796,174,271
609882115,266,153,155,371,810,172,270
609883115,264,153,156,374,817,173,268
609884115,261,154,155,369,807,173,267
609885115,260,155,154,366,803,173,266
609886115,257,149,154,362,824,173,263
609887115,254,154,153,358,854,177,263
609888115,251,154,151,356,874,181,261
609889115,249,154,151,352,874,182,260
609890115,248,154,150,346,856,184,259
609891115,246,153,148,350,861,188,258
609892115,243,149,150,349,873,194,257
609893115,243,153,148,347,888,198,256
609894115,240,152,147,344,904,199,256
609895115,239,153,147,341,923,202,255
609896115,236,156,146,343,942,209,255
609897115,235,153,147,347,957,214,253
609898115,235,153,146,346,962,220,253
609899115,235,153,145,344,961,221,253
609900115,234,151,145,342,945,220,251
609901115,232,152,147,339,947,229,250
609902115,231,152,144,338,966,229,250
609903115,230,152,144,334,993,228,248
609904115,230,151,143,330,1017,229,247
609905115,228,148,142,332,1016,231,246
609906115,223,152,141,339,1007,230,245
609907115,224,152,141,337,1020,229,243
609908115,224,152,139,335,1044,231,242
609909115,221,151,139,343,1067,230,241
609910115,219,152,139,359,1081,228,241
609911115,218,152,136,380,1081,226,239
609912115,217,152,138,400,1073,224,239
609913115,215,152,138,417,1063,225,237
609914115,214,152,137,435,1049,225,236
609915115,213,152,137,442,1032,225,236
609916115,211,152,136,435,1012,226,233
609917115,210,152,135,436,993,226,236
609918115,209,151,135,454,972,229,237
609919115,208,152,134,457,953,230,236
609920115,208,153,136,458,934,230,234
609921115,204,154,134,463,915,231,234
609922115,203,154,133,459,897,235,233
609923115,203,155,133,463,880,237,232
609924115,202,156,129,483,863,236,231
609925115,201,156,132,489,845,236,231
609926115,201,156,132,487,833,236,230
609927115,199,158,132,483,824,235,229
609928115,200,160,134,482,808,233,228
609929115,202,160,134,480,796,232,227
609930115,201,159,134,483,784,230,226
609931115,200,162,131,489,769,228,227
609932115,201,161,133,498,763,226,225
609933115,200,163,132,499,775,225,223
609934115,200,164,134,522,794,227,224
609935115,202,164,136,531,822,228,223
609936115,198,166,133,534,848,227,222
609937115,198,165,132,530,854,227,221
609938115,197,166,132,528,843,229,219
609939115,197,165,132,531,829,229,219
609940115,197,164,132,542,823,227,220
609941115,196,165,133,563,834,225,218
609942115,198,165,132,568,848,227,217
609943115,204,164,134,567,854,227,215
609944115,208,164,136,558,851,226,215
609945115,210,165,137,551,843,223,214
609946115,219,163,137,550,834,220,213
609947115,217,162,136,549,823,218,212
609948115,217,164,136,547,810,217,211
609949115,216,164,135,544,794,215,211
609950115,215,163,134,537,788,213,210
609951115,214,160,135,528,791,211,210
609952115,213,163,134,521,797,210,205
609953115,211,164,134,516,805,212,209
609954115,211,165,132,509,815,212,209
609955115,210,165,133,504,826,212,208
609956115,210,166,132,500,827,211,207
609957115,210,167,135,499,815,211,205
609958115,209,168,139,496,800,207,206
609959115,209,169,140,487,793,214,205
609960115,206,170,142,482,799,212,204
609961115,205,169,139,476,802,211,203
609962115,204,170,138,472,802,210,203
609963115,202,171,138,467,808,211,203
609964115,201,170,137,462,822,220,202
609965115,200,172,137,458,839,220,202
609966115,203,171,137,452,849,219,201
609967115,198,171,136,445,855,221,201
609968115,198,170,136,440,857,219,202
609969115,197,169,136,434,853,220,200
609970115,198,171,136,428,842,220,200
609971115,194,170,137,424,830,219,202
609972115,195,170,137,418,817,217,202
609973115,194,169,137,412,802,216,213
609974115,194,170,146,409,787,211,225
609975115,192,168,170,406,772,208,233
609976115,191,168,200,400,755,210,239
609977115,190,167,239,396,743,208,245
609978115,189,167,270,393,726,205,252
609979115,188,167,292,390,712,204,267
609980115,187,167,294,385,697,202,276
609981115,187,166,292,379,685,200,278
609982115,188,167,297,377,673,199,276
609983115,187,168,306,378,659,196,275
609984115,187,176,320,378,646,195,273
609985115,185,184,338,383,637,193,273
609986115,188,193,358,383,627,192,272
609987115,187,203,375,384,617,189,270
609988115,186,210,388,388,614,190,269
609989115,187,218,394,391,616,191,268
609990115,186,228,400,394,625,194,267
609991115,186,239,402,404,638,198,267
609992115,185,242,400,406,653,201,266
609993115,189,240,396,427,663,201,262
609994115,201,246,392,435,665,199,267
609995115,215,258,397,432,657,201,268
609996115,226,273,409,426,643,205,268
609997115,233,287,429,426,633,219,269
609998115,231,293,447,427,629,226,268
609999115,233,294,455,433,630,229,269
610000115,231,299,453,441,634,225,267
610001115,232,310,454,450,637,223,267
610002115,230,323,457,452,640,220,266
610003115,230,326,465,447,638,218,266
610004115,228,323,468,450,634,218,266
610005115,226,326,464,461,628,216,264
610006115,225,329,467,460,619,213,265
610007115,225,337,474,458,607,211,267
610008115,231,351,476,452,595,209,267
610009115,242,364,472,445,586,207,266
610010115,255,374,467,450,579,210,265
610011115,265,388,460,458,571,214,265
610012115,267,393,469,463,562,214,264
610013115,266,399,489,468,551,214,263
610014115,268,400,498,467,544,210,263
610015115,273,400,502,463,530,214,262
610016115,272,398,503,457,520,226,260
610017115,268,402,516,451,515,239,261
610018115,269,407,540,449,504,262,261
610019115,276,411,553,449,497,281,260
610020115,293,414,558,443,487,301,259
610021115,305,425,557,439,487,317,259
610022115,311,429,553,432,491,329,258
610023115,316,428,547,427,502,336,259
610024115,327,452,554,426,520,335,260
610025115,339,469,571,426,540,331,257
610026115,340,478,590,423,557,329,259
610027115,339,475,613,423,559,329,262
610028115,357,468,638,415,551,332,262
610029115,385,470,664,418,541,336,272
610030115,419,499,692,412,537,337,273
610031115,454,523,711,412,535,333,272
610032115,498,540,718,405,536,327,272
610033115,534,549,715,402,542,324,271
610034115,561,552,709,397,546,321,279
610035115,584,552,700,395,550,323,292
610036115,600,544,695,393,547,326,309
610037115,611,545,700,388,540,332,327
610038115,616,562,698,391,536,344,344
610039115,609,565,692,398,534,356,362
610040115,601,577,699,406,528,369,373
610041115,606,595,694,412,526,373,376
610042115,607,621,714,410,525,377,377
610043115,612,646,764,405,530,385,375
610044115,641,672,819,407,538,394,375
610045115,682,702,878,407,538,404,375
610046115,731,727,942,403,535,410,381
610047115,783,736,990,397,534,414,387
610048115,853,736,1026,397,537,413,388
610049115,931,743,1031,394,540,411,390
610050115,991,743,1037,395,534,407,389
610051115,1018,742,1067,403,525,401,387
610052115,1033,742,1073,411,518,393,386
610053115,1032,767,1063,418,519,388,384
610054115,1016,775,1096,418,521,381,383
610055115,1030,769,1152,418,514,377,379
610056115,1076,788,1223,419,503,373,376
610057115,1143,796,1318,416,502,370,372
610058115,1197,787,1420,413,514,369,370
610059115,1240,782,1506,411,543,365,368
610060115,1260,782,1547,407,584,363,365
610061115,1258,803,1560,406,629,361,362
610062115,1240,853,1564,401,674,359,362
610063115,1217,898,1578,396,688,353,360
610064115,1193,906,1569,395,677,358,361
610065115,1171,890,1545,387,683,364,360
610066115,1155,877,1537,384,707,362,359
610067115,1136,871,1527,381,729,367,357
610068115,1114,858,1529,382,739,386,356
610069115,1109,857,1562,385,731,405,354
610070115,1127,853,1607,385,718,418,349
610071115,1154,842,1687,382,713,435,348
610072115,1180,829,1754,379,720,458,346
610073115,1204,841,1779,379,741,485,344
610074115,1213,875,1755,377,759,506,343
610075115,1200,934,1774,379,771,516,341
610076115,1179,986,1827,377,776,513,339
610077115,1188,1021,1884,374,773,505,338
610078115,1207,1019,1923,386,761,497,337
610079115,1221,1002,1944,407,747,490,334
610080115,1215,1009,1957,432,741,490,334
610081115,1194,1042,1957,453,741,499,331
610082115,1185,1116,1945,467,746,520,330
610083115,1186,1195,1931,469,761,545,328
610084115,1192,1241,1911,464,788,573,326
610085115,1198,1244,1885,457,819,604,326
610086115,1203,1226,1861,452,850,638,325
610087115,1199,1233,1836,447,881,661,323
610088115,1188,1233,1816,449,916,680,322
610089115,1170,1218,1800,457,948,701,320
610090115,1147,1196,1777,458,972,714,318
610091115,1126,1173,1744,453,986,727,317
610092115,1105,1156,1708,448,993,734,316
610093115,1084,1154,1673,453,994,738,314
610094115,1064,1156,1638,463,990,736,312
610095115,1043,1149,1609,477,984,733,312
610096115,1025,1140,1588,489,975,729,312
610097115,1004,1122,1579,487,962,721,310
610098115,993,1104,1641,495,944,710,310
610099115,995,1082,1794,512,928,697,310
610100115,997,1062,1947,523,907,688,311
610101115,1002,1046,2092,529,892,679,311
610102115,1013,1035,2176,534,877,679,312
610103115,1030,1029,2207,545,861,673,313
610104115,1057,1025,2180,552,844,672,317
610105115,1112,1026,2148,557,828,674,323
610106115,1165,1047,2132,555,811,679,330
610107115,1203,1076,2134,552,798,688,336
610108115,1217,1115,2138,548,783,696,340
610109115,1203,1111,2154,546,778,704,341
610110115,1192,1110,2190,545,779,709,340
610111115,1202,1114,2235,555,781,712,337
610112115,1213,1110,2251,566,783,709,331
610113115,1205,1119,2212,573,781,698,331
610114115,1189,1129,2192,572,783,686,330
610115115,1185,1130,2184,564,796,674,331
610116115,1181,1123,2161,564,816,662,330
610117115,1171,1107,2120,570,841,652,329
610118115,1149,1104,2104,572,870,646,329
610119115,1128,1097,2128,572,898,645,327
610120115,1111,1107,2163,568,907,647,325
610121115,1109,1106,2199,560,902,649,323
610122115,1114,1100,2215,552,885,649,321
610123115,1120,1137,2215,542,882,652,319
610124115,1118,1160,2217,535,868,657,318
610125115,1113,1160,2203,533,858,658,316
610126115,1102,1153,2173,535,854,658,314
610127115,1086,1145,2139,544,853,654,314
610128115,1067,1139,2095,551,837,645,315
610129115,1047,1132,2047,548,840,637,311
610130115,1028,1121,2005,543,869,637,310
610131115,1007,1106,1967,539,909,645,308
610132115,988,1087,1923,545,938,652,309
610133115,970,1070,1881,553,961,659,306
610134115,950,1051,1844,557,974,662,306
610135115,935,1030,1805,551,973,667,304
610136115,919,1012,1765,549,958,674,305
610137115,904,998,1729,549,942,680,300
610138115,888,985,1693,543,934,685,299
610139115,872,973,1659,539,922,692,299
610140115,856,960,1632,533,913,698,298
610141115,840,943,1604,527,895,704,297
610142115,825,927,1577,525,879,701,296
610143115,811,911,1553,529,869,698,294
610144115,796,895,1527,531,854,691,294
610145115,783,881,1504,528,837,685,293
610146115,767,866,1478,522,824,671,292
610147115,755,851,1456,520,812,664,291
610148115,741,835,1431,517,798,651,291
610149115,731,820,1408,516,789,642,290
610150115,716,806,1382,511,795,633,289
610151115,704,791,1357,504,814,623,290
610152115,692,780,1334,500,836,615,291
610153115,680,762,1308,501,855,605,290
610154115,667,749,1284,502,871,595,291
610155115,657,736,1258,499,885,585,291
610156115,645,723,1234,497,889,575,295
610157115,639,711,1209,492,895,566,292
610158115,636,706,1185,488,889,555,293
610159115,629,697,1163,487,881,549,295
610160115,619,696,1166,492,871,547,298
610161115,609,713,1233,498,861,550,299
610162115,600,728,1355,508,853,553,301
610163115,596,724,1468,513,846,558,304
610164115,595,716,1525,509,836,561,306
610165115,605,719,1513,509,826,573,313
610166115,651,728,1516,521,818,576,319
610167115,726,733,1564,533,806,580,327
610168115,801,725,1624,540,790,580,336
610169115,828,738,1669,538,776,581,341
610170115,829,756,1681,533,766,576,340
610171115,865,750,1678,525,754,569,341
610172115,904,751,1685,520,741,561,337
610173115,937,743,1687,515,730,551,334
610174115,954,749,1659,507,719,540,330
610175115,957,771,1644,503,707,533,330
610176115,953,776,1632,498,698,525,329
610177115,937,776,1606,493,697,521,328
610178115,921,772,1576,489,691,518,329
610179115,919,763,1563,485,693,517,329
610180115,936,765,1574,479,704,517,328
610181115,943,768,1590,474,715,514,332
610182115,929,769,1594,469,726,511,334
610183115,937,753,1578,463,728,504,330
610184115,969,744,1563,459,724,497,328
610185115,1002,744,1554,456,713,490,326
610186115,1029,763,1544,451,700,484,325
610187115,1043,788,1524,449,691,473,323
610188115,1049,802,1496,445,687,470,321
610189115,1048,798,1465,441,687,470,320
610190115,1040,785,1435,439,686,468,317
610191115,1027,771,1413,435,679,466,318
610192115,1010,759,1392,430,668,460,316
610193115,993,752,1371,440,660,456,316
610194115,973,748,1353,457,671,454,317
610195115,955,744,1335,455,695,452,322
610196115,940,743,1318,451,727,450,326
610197115,920,738,1300,445,758,448,327
610198115,902,735,1283,441,784,443,328
610199115,887,730,1264,436,797,440,329
610200115,870,725,1241,446,799,435,328
610201115,855,717,1227,455,784,427,329
610202115,841,706,1206,455,786,421,328
610203115,826,694,1186,452,787,415,325
610204115,811,682,1163,474,782,411,324
610205115,797,674,1141,515,790,414,323
610206115,783,662,1120,560,824,417,321
610207115,769,650,1099,586,861,419,318
610208115,755,641,1078,594,893,415,317
610209115,742,633,1056,604,915,408,314
610210115,728,625,1034,617,932,402,314
610211115,716,619,1013,620,946,395,313
610212115,704,611,994,617,952,391,313
610213115,691,602,973,609,954,388,317
610214115,679,592,954,599,945,386,318
610215115,668,582,935,591,931,385,319
610216115,657,572,918,591,915,384,319
610217115,646,564,900,595,911,379,319
610218115,635,554,883,593,908,375,320
610219115,625,545,866,592,898,368,321
610220115,614,536,849,597,883,364,321
610221115,603,529,835,597,869,363,322
610222115,594,523,816,601,858,363,323
610223115,584,518,801,608,843,364,322
610224115,575,513,785,612,829,367,321
610225115,566,507,768,609,812,372,324
610226115,559,503,755,602,796,373,323
610227115,548,497,740,596,783,373,323
610228115,539,493,726,588,773,364,323
610229115,531,489,712,579,775,355,323
610230115,523,484,698,569,793,355,324
610231115,517,479,685,563,818,348,324
610232115,507,474,673,557,830,344,325
610233115,501,468,660,560,820,341,326
610234115,493,461,648,556,822,340,327
610235115,485,453,635,548,829,336,328
610236115,478,450,624,550,834,331,330
610237115,473,444,612,559,834,329,331
610238115,466,437,601,579,837,324,333
610239115,458,432,590,598,841,319,334
610240115,453,425,580,603,849,325,335
610241115,445,420,569,599,862,326,335
610242115,438,416,559,603,872,327,336
610243115,432,411,549,612,877,326,336
610244115,426,407,539,613,882,324,338
610245115,420,405,530,608,881,321,336
610246115,414,397,521,601,885,322,337
610247115,408,392,511,595,882,323,339
610248115,403,387,505,598,875,322,341
610249115,397,382,493,606,863,323,345
610250115,392,376,486,614,846,320,349
610251115,387,375,477,611,829,316,351
610252115,382,373,467,615,813,312,355
610253115,377,371,462,644,806,310,357
610254115,373,366,453,694,802,312,360
610255115,368,362,445,736,806,320,362
610256115,363,357,438,742,818,329,367
610257115,358,353,430,752,833,338,369
610258115,354,348,424,775,853,347,371
610259115,349,344,417,783,874,354,373
610260115,345,337,409,786,907,357,375
610261115,340,337,403,776,936,361,375
610262115,337,333,396,764,953,358,380
610263115,332,331,390,764,952,356,380
610264115,329,327,384,789,960,359,381
610265115,325,324,377,814,979,357,381
610266115,323,321,372,829,1014,354,382
610267115,319,316,366,827,1063,351,383
610268115,316,313,362,816,1092,360,387
610269115,312,311,356,804,1083,376,389
610270115,309,307,349,801,1092,399,392
610271115,305,303,340,793,1142,414,394
610272115,302,299,339,780,1202,421,396
610273115,300,294,334,767,1255,420,397
610274115,297,295,329,754,1289,417,397
610275115,295,291,324,743,1304,411,398
610276115,293,290,323,732,1302,404,398
610277115,289,292,316,724,1286,397,398
610278115,286,293,312,715,1265,392,393
610279115,286,293,307,710,1246,387,397
610280115,280,292,302,707,1229,381,397
610281115,277,290,299,700,1218,380,396
610282115,276,288,294,692,1206,379,395
610283115,272,286,291,688,1200,379,395
610284115,270,286,287,676,1198,377,394
610285115,265,288,282,666,1188,373,393
610286115,265,293,279,658,1175,370,391
610287115,262,299,276,650,1168,370,389
610288115,260,306,273,644,1157,366,387
610289115,258,311,267,635,1148,362,385
610290115,256,314,264,626,1138,362,384
610291115,252,315,261,617,1129,363,381
610292115,249,313,258,607,1122,365,380
610293115,251,311,255,598,1110,363,378
610294115,248,310,251,588,1091,358,376
610295115,245,307,249,579,1070,353,375
610296115,244,304,246,571,1049,348,373
610297115,242,300,247,562,1029,342,372
610298115,242,296,247,554,1014,338,371
610299115,244,296,245,546,1000,333,370
610300115,240,306,247,539,992,331,368
610301115,239,318,254,533,985,329,368
610302115,236,332,258,526,981,326,369
610303115,235,346,256,520,971,322,364
610304115,232,366,252,517,962,317,363
610305115,231,392,252,519,946,314,359
610306115,230,413,260,527,927,314,357
610307115,231,422,267,542,908,321,352
610308115,237,419,272,555,896,331,350
610309115,244,417,276,562,897,344,348
610310115,249,432,283,557,921,362,345
610311115,251,459,289,565,961,381,344
610312115,250,479,292,564,1009,396,336
610313115,251,488,291,564,1058,406,338
610314115,248,498,287,558,1102,423,339
610315115,246,504,284,557,1144,445,331
610316115,244,504,280,561,1170,468,333
610317115,245,499,277,574,1161,479,330
610318115,241,491,276,568,1150,483,329
610319115,240,484,278,577,1138,480,329
610320115,238,484,275,600,1120,481,331
610321115,239,484,272,617,1104,491,333
610322115,236,488,268,617,1113,503,336
610323115,232,495,264,610,1131,512,339
610324115,231,502,262,602,1160,530,341
610325115,229,506,259,595,1192,551,342
610326115,228,505,255,594,1219,568,345
610327115,227,498,251,597,1247,584,345
610328115,226,490,248,602,1280,603,346
610329115,225,486,248,600,1311,617,344
610330115,225,485,248,596,1348,626,343
610331115,224,480,268,585,1378,633,343
610332115,221,472,304,586,1393,637,341
610333115,220,466,340,591,1403,640,340
610334115,220,465,365,591,1403,637,340
610335115,222,461,376,588,1387,628,337
610336115,222,457,391,587,1361,617,337
610337115,249,468,408,584,1340,609,341
610338115,296,484,409,578,1335,602,344
610339115,322,500,404,574,1334,598,346
610340115,324,507,405,567,1325,593,348
610341115,339,504,404,560,1312,588,345
610342115,361,502,420,552,1307,588,344
610343115,382,503,449,546,1305,595,341
610344115,395,505,486,540,1296,600,338
610345115,403,500,525,530,1279,602,335
610346115,401,493,551,521,1268,597,332
610347115,399,496,573,514,1258,596,327
610348115,394,515,586,506,1246,591,325
610349115,400,526,587,499,1225,589,327
610350115,407,529,583,494,1200,586,325
610351115,416,527,578,492,1175,580,324
610352115,423,520,568,490,1155,577,323
610353115,427,523,559,485,1140,572,321
610354115,432,532,548,483,1121,569,320
610355115,432,529,537,482,1099,562,318
610356115,430,521,529,477,1077,553,316
610357115,425,513,519,471,1055,549,315
610358115,421,508,514,473,1035,537,315
610359115,412,498,501,477,1015,531,312
610360115,409,490,493,471,995,525,310
610361115,404,482,486,469,986,517,308
610362115,397,474,479,475,991,508,308
610363115,393,469,470,492,1009,501,306
610364115,388,461,462,515,1034,503,305
610365115,383,455,454,522,1044,501,304
610366115,378,450,458,524,1029,493,302
610367115,374,444,465,541,1008,486,300
610368115,367,436,469,560,1015,479,299
610369115,364,437,477,568,1030,474,296
610370115,364,444,480,574,1028,468,294
610371115,365,461,476,573,1029,461,291
610372115,363,482,472,566,1029,454,289
610373115,361,501,477,566,1039,452,288
610374115,357,512,489,560,1047,452,287
610375115,358,509,496,552,1054,453,288
610376115,362,502,490,548,1054,452,289
610377115,366,497,489,542,1046,451,291
610378115,364,504,484,534,1035,455,293
610379115,359,521,483,531,1025,464,295
610380115,355,531,486,522,1004,468,295
610381115,349,525,526,512,996,473,297
610382115,348,528,579,506,1005,473,298
610383115,343,534,621,499,1028,470,298
610384115,340,548,642,493,1039,468,299
610385115,336,569,652,492,1051,461,300
610386115,336,586,654,486,1039,459,300
610387115,333,603,683,482,1030,476,298
610388115,328,623,719,481,1019,504,297
610389115,324,635,748,474,1003,541,297
610390115,321,630,746,469,1004,583,295
610391115,319,658,770,463,1042,628,294
610392115,320,715,818,456,1089,662,293
610393115,318,751,875,451,1111,681,292
610394115,318,759,937,445,1097,680,290
610395115,327,758,978,439,1092,674,289
610396115,331,773,987,434,1087,677,288
610397115,340,789,982,428,1106,679,287
610398115,357,807,978,423,1149,695,285
610399115,376,823,986,414,1188,715,285
610400115,395,836,994,412,1213,745,283
610401115,403,859,1010,407,1234,771,284
610402115,407,872,1028,403,1247,792,283
610403115,405,900,1032,399,1248,810,284
610404115,431,911,1018,394,1234,827,283
610405115,483,899,1005,390,1209,840,282
610406115,546,914,989,388,1191,850,282
610407115,609,940,968,392,1184,851,280
610408115,656,964,962,405,1185,837,278
610409115,677,974,952,424,1189,827,279
610410115,673,979,940,443,1210,827,278
610411115,662,1000,923,459,1258,832,277
610412115,650,1040,907,456,1329,840,277
610413115,639,1076,893,471,1406,845,275
610414115,644,1090,881,483,1456,844,275
610415115,643,1077,869,485,1452,838,276
610416115,632,1062,856,480,1427,825,273
610417115,631,1054,845,475,1432,811,272
610418115,636,1059,832,469,1453,804,271
610419115,647,1067,819,466,1476,799,270
610420115,653,1081,813,468,1494,790,270
610421115,663,1105,801,472,1498,785,267
610422115,672,1113,786,475,1492,778,268
610423115,679,1098,770,473,1478,771,267
610424115,677,1082,754,467,1460,776,268
610425115,673,1065,743,464,1457,778,273
610426115,660,1056,732,466,1476,776,273
610427115,648,1045,722,469,1494,773,269
610428115,637,1034,711,469,1498,769,273
610429115,628,1018,699,462,1489,760,273
610430115,622,1003,689,457,1461,746,272
610431115,612,986,680,456,1442,734,272
610432115,603,968,668,454,1429,725,271
610433115,594,952,660,448,1404,716,273
610434115,586,935,648,444,1380,704,276
610435115,574,918,636,453,1361,690,273
610436115,566,901,626,457,1350,682,271
610437115,561,885,615,455,1339,676,271
610438115,556,871,602,450,1328,668,270
610439115,553,857,593,447,1320,662,269
610440115,549,840,581,446,1307,657,267
610441115,545,828,571,446,1284,650,267
610442115,540,816,560,443,1257,643,267
610443115,539,802,551,438,1233,635,266
610444115,532,791,540,438,1209,625,266
610445115,525,787,531,437,1185,616,265
610446115,518,780,520,440,1161,607,265
610447115,509,773,512,436,1139,598,264
610448115,502,763,502,437,1115,586,264
610449115,494,754,494,437,1094,579,263
610450115,488,745,486,434,1077,571,266
610451115,481,735,477,428,1064,565,261
610452115,472,724,469,425,1064,561,261
610453115,466,711,461,425,1079,558,260
610454115,459,699,454,427,1111,555,259
610455115,452,690,445,424,1147,550,257
610456115,445,681,438,425,1182,545,258
610457115,439,675,432,418,1215,543,258
610458115,433,667,424,412,1234,545,257
610459115,426,660,417,407,1240,545,257
610460115,422,657,410,404,1240,540,255
610461115,414,652,403,406,1225,538,253
610462115,408,647,396,412,1205,531,255
610463115,404,641,391,409,1199,529,250
610464115,397,632,385,422,1184,523,250
610465115,393,624,379,446,1175,517,251
610466115,387,614,374,469,1202,507,250
610467115,383,603,371,479,1242,501,251
610468115,377,595,366,480,1285,492,250
610469115,375,587,362,492,1327,488,249
610470115,363,577,364,503,1358,478,248
610471115,362,575,373,504,1371,471,249
610472115,359,566,376,503,1370,463,248
610473115,369,571,380,498,1363,456,247
610474115,390,584,402,493,1342,451,248
610475115,409,592,428,489,1316,446,248
610476115,413,588,448,483,1297,440,247
610477115,407,587,454,478,1287,436,246
610478115,406,586,450,472,1283,431,246
610479115,406,578,464,466,1287,427,245
610480115,400,582,491,464,1285,424,246
610481115,397,581,521,465,1261,423,245
610482115,396,572,549,466,1237,420,245
610483115,393,564,573,466,1216,423,245
610484115,395,555,585,466,1209,444,244
610485115,393,547,585,481,1218,472,244
610486115,394,538,576,497,1247,497,243
610487115,392,532,567,505,1295,524,241
610488115,391,527,555,501,1340,532,242
610489115,392,520,545,506,1361,528,242
610490115,392,514,537,510,1377,521,241
610491115,390,507,527,517,1371,521,241
610492115,386,501,519,517,1356,529,241
610493115,381,495,512,515,1382,535,241
610494115,375,488,504,508,1427,536,240
610495115,373,479,500,504,1481,536,240
610496115,367,473,496,505,1520,535,240
610497115,362,466,490,504,1532,530,239
610498115,358,460,483,503,1522,521,240
610499115,354,460,474,517,1493,513,239
610500115,349,464,467,527,1479,504,238
610501115,345,468,461,531,1486,498,238
610502115,340,469,457,530,1496,501,243
610503115,336,467,451,524,1474,512,245
610504115,332,460,449,518,1451,527,246
610505115,329,455,443,513,1451,535,247
610506115,329,448,440,507,1463,541,246
610507115,333,444,435,503,1479,544,245
610508115,332,441,428,496,1501,544,246
610509115,330,435,422,501,1521,540,249
610510115,328,430,414,508,1535,535,250
610511115,330,424,407,513,1536,526,250
610512115,327,424,402,515,1516,517,251
610513115,325,428,395,510,1491,508,253
610514115,324,434,391,506,1468,506,255
610515115,320,440,384,501,1468,509,254
610516115,313,446,380,496,1481,520,253
610517115,311,448,376,489,1520,527,251
610518115,309,445,372,484,1578,530,250
610519115,306,439,373,489,1641,528,248
610520115,300,433,402,493,1716,528,247
610521115,299,429,471,494,1774,542,246
610522115,295,443,530,491,1820,572,244
610523115,296,455,561,486,1851,605,245
610524115,293,457,567,480,1865,632,245
610525115,291,457,568,475,1864,653,244
610526115,288,456,593,472,1848,657,246
610527115,285,458,629,471,1828,650,245
610528115,286,457,652,470,1839,641,245
610529115,292,460,677,465,1867,645,244
610530115,298,461,701,463,1911,661,248
610531115,308,465,722,459,1969,668,256
610532115,311,470,740,456,2031,659,261
610533115,308,474,750,451,2093,659,266
610534115,303,471,755,445,2105,661,267
610535115,303,465,756,450,2116,656,266
610536115,310,453,747,456,2099,645,266
610537115,317,453,738,456,2063,633,265
610538115,323,457,741,452,2015,622,269
610539115,321,466,754,449,1977,611,275
610540115,321,477,772,456,1935,601,276
610541115,327,493,769,463,1894,591,276
610542115,332,514,766,470,1861,583,275
610543115,331,536,772,474,1835,571,274
610544115,332,564,771,473,1809,563,273
610545115,354,594,758,476,1777,553,273
610546115,378,624,745,482,1747,543,276
610547115,403,639,733,480,1710,548,279
610548115,420,636,730,476,1681,558,279
610549115,421,626,730,472,1652,570,277
610550115,424,615,733,467,1623,579,276
610551115,438,626,732,462,1602,581,276
610552115,447,663,729,461,1578,574,275
610553115,465,716,726,466,1560,566,275
610554115,474,744,717,472,1543,554,274
610555115,480,746,705,473,1518,546,273
610556115,483,735,694,473,1492,540,273
610557115,485,726,712,469,1463,541,272
610558115,486,713,745,463,1456,559,273
610559115,485,705,770,463,1476,585,269
610560115,488,700,778,461,1521,610,270
610561115,484,705,766,458,1591,622,268
610562115,477,712,761,454,1654,621,268
610563115,471,719,771,459,1662,612,265
610564115,465,738,784,473,1641,616,266
610565115,464,751,800,489,1652,628,269
