time,EMG1,EMG2,EMG3,EMG4,EMG5,EMG6,EMG7
18652619,157,165,118,199,85,123,212
18657293,155,163,117,199,84,124,214
18661896,155,161,117,202,85,123,214
18666521,154,161,117,204,86,124,212
18671145,154,166,118,209,86,124,213
18675771,156,170,118,206,84,125,213
18680398,155,169,117,206,85,125,213
18685022,155,167,118,205,84,125,213
18689646,155,173,117,204,85,125,213
18694273,155,176,117,201,85,125,213
18698899,155,172,118,200,82,125,213
18703524,155,170,118,202,85,123,214
18708149,156,167,117,200,84,123,214
18712738,155,166,118,199,84,124,214
18717445,155,162,118,199,84,123,214
18722149,156,163,117,197,84,124,216
18726855,156,161,116,197,85,120,216
18731562,155,160,117,196,85,123,215
18736272,156,158,118,195,85,123,214
18740978,155,157,117,197,84,124,213
18745684,157,159,117,195,84,124,214
18750390,154,158,117,198,84,124,216
18755097,158,157,120,201,85,123,215
18759804,155,166,119,205,84,123,214
18764514,156,172,118,204,85,124,214
18769224,156,171,119,202,83,125,214
18773933,156,177,118,201,85,126,214
18778569,157,174,119,199,85,127,215
18783304,158,172,119,198,84,126,215
18788039,155,169,119,198,83,124,215
18792774,156,167,118,197,82,126,215
18797509,156,165,118,201,84,125,215
18802244,155,163,118,199,85,124,215
18806979,155,162,117,197,85,125,214
18811714,157,161,117,198,85,124,214
18816449,157,160,117,199,85,124,214
18821184,157,159,118,198,84,124,214
18825919,156,166,117,196,86,123,214
18830653,157,166,118,197,84,124,216
18835388,160,165,117,195,85,123,215
18840123,156,179,119,195,84,123,215
18844715,156,186,117,194,85,122,215
18849450,156,187,117,194,84,123,214
18854184,156,184,118,193,85,123,215
18858919,155,180,117,193,85,122,215
18863654,156,177,117,191,86,122,215
18868388,157,174,117,192,87,123,216
18873123,157,170,117,191,84,122,214
18877858,156,171,117,190,85,122,214
18882606,157,167,117,192,85,123,215
18887362,157,167,117,191,85,124,217
18892126,158,165,116,192,84,124,216
18896871,156,166,117,194,84,123,216
18901638,157,172,117,196,84,122,217
18906383,159,172,116,197,84,123,216
18910964,155,173,117,196,88,122,217
18915731,155,170,118,195,85,125,216
18920460,156,175,118,194,84,124,217
18925190,155,194,117,196,84,123,216
18929905,155,192,117,193,84,124,217
18934621,155,186,117,191,84,123,216
18939345,156,183,117,191,84,123,215
18944060,156,180,118,190,85,123,215
18948799,155,177,118,189,84,124,215
18953525,155,175,117,189,85,124,217
18958256,156,171,117,190,84,124,212
18962973,154,171,118,190,84,124,215
18967694,155,170,116,191,84,125,213
18972439,156,172,118,195,84,123,214
18976977,155,171,117,193,85,124,214
18981692,156,168,118,196,85,123,214
18986428,155,167,117,195,86,124,213
18991184,155,165,116,198,85,122,212
18995899,154,164,117,197,84,122,214
19000616,156,168,120,196,85,123,214
19005331,156,168,117,195,83,123,214
19010047,156,167,117,195,84,122,215
19014762,156,164,117,195,84,121,215
19019518,155,164,116,194,84,123,215
19024234,158,161,118,195,84,124,217
19028949,155,162,118,196,84,124,215
19033666,155,158,117,196,84,124,216
19038384,156,158,117,199,85,124,217
19043098,154,158,117,199,84,123,215
19047807,155,157,114,200,87,123,216
19052534,156,155,118,199,85,123,215
19057246,156,173,119,198,85,123,216
19061956,156,175,119,200,85,123,216
19066666,155,179,119,199,84,123,215
19071378,155,180,119,197,82,123,215
19076089,158,178,119,197,86,124,215
19080799,156,176,118,195,85,123,216
19085544,155,184,118,195,85,124,215
19090256,155,181,119,198,84,124,215
19094968,154,178,118,199,86,122,216
19099678,155,173,120,199,85,123,217
19104289,155,171,117,198,85,125,216
19108918,155,169,118,200,84,125,218
19113546,158,168,118,198,83,124,224
19118175,156,165,116,198,84,124,223
19122804,155,164,117,197,84,125,223
19127456,157,163,117,199,86,124,222
19132098,154,162,118,201,84,125,222
19136738,155,170,118,205,85,124,221
19141367,157,168,121,203,83,123,222
19145995,155,167,118,204,85,125,220
19150624,156,169,119,201,84,122,219
19155265,158,166,118,202,85,124,219
19159894,155,166,118,200,85,124,219
19164523,158,164,118,202,86,125,220
19169269,156,163,118,200,85,123,219
19173993,155,161,118,199,85,123,219
19178746,154,160,118,198,84,124,218
19183480,154,160,118,202,86,124,218
19188215,155,161,117,205,87,123,218
19192950,156,159,118,209,85,125,219
19197684,156,159,117,206,85,124,218
19202421,154,167,120,212,85,121,218
19207168,156,168,123,209,85,123,218
19211902,155,166,122,210,86,122,218
19216637,156,164,122,207,85,122,218
19221375,155,163,121,205,86,121,217
19226109,155,163,121,206,88,122,217
19230843,155,162,122,204,87,123,218
19235480,156,160,121,204,87,122,216
19240295,157,162,120,204,85,124,217
19245111,154,162,119,202,87,124,217
19249926,155,160,119,203,86,123,217
19254745,156,159,121,200,86,123,217
19259561,156,157,119,199,86,124,218
19264376,156,157,119,199,85,124,216
19269192,156,155,118,200,85,123,214
19274019,156,155,115,198,88,123,217
19278835,155,154,118,197,86,123,217
19283650,156,161,119,197,85,124,217
19288466,156,179,120,202,86,123,217
19293281,157,181,123,207,86,122,216
19298097,160,177,122,210,85,122,217
19302776,158,180,121,207,84,125,216
19307616,158,177,120,204,88,125,215
19312457,157,176,121,210,85,125,216
19317298,158,171,121,218,85,123,215
19322140,158,169,120,215,82,123,216
19326981,156,167,119,213,84,124,216
19331832,157,164,119,210,83,124,225
19336673,156,163,119,208,85,123,230
19341516,156,161,119,208,85,126,228
19346357,156,160,119,204,85,124,230
19351197,156,158,119,203,84,123,226
19356039,157,159,118,201,86,124,226
19367201,156,176,118,197,86,123,223
19371930,154,174,119,195,85,122,224
19376505,157,174,119,196,85,123,222
19381282,156,171,118,201,85,118,222
19386060,157,169,118,199,87,125,222
19390838,154,167,118,201,84,122,222
19395616,156,165,118,198,85,123,220
19400394,156,164,118,198,85,124,221
19405179,157,162,118,197,84,124,221
19410006,156,160,118,198,85,122,220
19414833,155,158,118,196,84,123,220
19419659,155,157,118,199,82,123,219
19424486,158,156,117,198,83,123,219
19429313,156,155,117,197,85,123,219
19434140,155,158,117,196,84,123,219
19438967,155,165,118,195,85,123,219
19443775,155,169,117,195,85,123,218
19448583,156,185,119,193,85,123,218
19453391,157,182,118,193,85,122,218
19458199,156,180,117,191,85,123,221
19463008,157,182,118,191,84,124,218
19467816,156,180,118,191,85,125,218
19472624,155,178,118,192,84,125,217
19477433,155,174,118,192,86,124,217
19482241,156,171,118,196,84,124,218
19487050,156,169,117,196,88,124,227
19491858,156,167,118,198,85,124,225
19496667,156,164,120,198,86,123,223
19501500,156,163,114,205,85,125,223
19506254,155,163,117,204,84,123,222
19511062,156,169,117,203,85,123,222
19515871,155,169,116,201,85,123,221
19520679,155,170,119,204,84,122,220
19525488,153,182,118,201,85,125,222
19530298,155,177,118,200,83,123,220
19535107,154,176,118,200,84,124,220
19539917,155,172,118,202,85,123,219
19544726,156,168,117,201,84,123,219
19549536,155,168,117,200,85,123,222
19554345,156,167,116,201,85,122,219
19559157,155,164,118,199,85,124,219
19563966,156,162,117,199,86,124,218
19568775,155,161,118,198,86,122,218
19573525,155,160,117,200,85,124,218
19578331,155,166,117,202,85,124,218
19583134,155,169,117,198,86,123,218
19587938,155,180,117,196,85,123,217
19592743,155,180,117,195,86,123,217
19597549,155,184,117,195,82,124,217
19602352,156,181,117,197,85,122,217
19607157,154,178,117,198,85,123,217
19611962,156,182,117,200,85,123,217
19616768,155,177,118,199,86,123,218
19621571,154,175,117,195,85,123,219
19626377,153,171,118,195,85,122,216
19631183,155,170,117,194,83,120,216
19635988,154,167,118,193,82,122,219
19640634,155,165,117,195,84,122,216
19645357,154,164,117,195,84,122,217
19650080,156,163,117,194,85,123,217
19654804,156,163,117,193,85,121,216
19659527,154,166,117,193,85,122,216
19664250,155,168,117,195,84,122,216
19668973,155,167,118,195,88,123,216
19673697,155,166,118,196,87,122,216
19678421,156,164,119,197,84,122,216
19683145,155,164,118,197,83,122,216
19687869,156,163,118,196,84,122,217
19692594,155,164,117,196,83,125,216
19697318,154,172,118,195,84,123,216
19702042,154,170,117,193,84,123,216
19706847,155,168,118,195,85,126,216
19711703,155,166,117,194,85,122,216
19716559,155,165,117,195,84,129,216
19721416,156,167,118,193,82,127,217
19726272,154,164,118,192,83,125,216
19731128,155,164,118,192,84,125,216
19735985,155,164,118,191,84,126,216
19740866,155,167,118,190,84,126,217
19745727,156,165,118,189,85,124,216
19750589,155,165,118,189,85,125,215
19755480,156,164,117,188,84,124,215
19760370,155,164,118,186,83,124,216
19765242,156,161,119,189,86,127,217
19770099,153,159,119,189,85,125,217
19774779,156,158,118,190,86,124,216
19779715,156,157,119,189,84,123,216
19784652,156,160,117,189,84,123,215
19789588,156,166,118,192,85,124,216
19794525,154,168,118,195,85,123,215
19799461,155,181,118,194,85,126,216
19804397,155,175,118,193,84,123,216
19809334,155,174,117,192,86,123,217
19814270,155,173,117,191,86,124,216
19819207,157,173,118,192,84,124,215
19824157,155,173,117,197,84,124,215
19829094,156,171,120,196,85,123,216
19834030,154,168,119,195,86,125,216
19838957,156,167,118,194,85,124,216
19843919,157,163,118,192,85,123,216
19848880,154,162,119,193,86,123,213
19853847,156,160,118,191,88,123,216
19858808,155,159,118,194,86,124,216
19863769,154,158,118,190,88,124,216
19868732,156,157,115,191,87,126,215
19873693,157,155,118,189,90,126,216
19878655,155,154,118,189,86,124,216
19883616,157,151,118,193,85,124,217
19888581,156,163,118,193,86,124,216
19893542,156,176,119,194,86,124,216
19898503,155,184,117,192,88,124,216
19903466,155,181,117,194,85,125,216
19908358,155,177,117,192,86,125,216
19913320,156,176,118,192,85,123,214
19918281,156,177,118,192,87,124,216
19923245,158,177,118,191,86,124,216
19928209,158,174,118,196,86,126,216
19933170,158,170,117,202,85,124,216
19938132,156,168,118,200,86,124,215
19943096,158,166,117,199,85,125,219
19948060,156,163,118,197,85,124,215
19953021,158,163,117,196,83,124,216
19957985,157,161,117,195,85,124,215
19962949,155,161,117,195,84,124,216
19967913,158,163,117,193,85,124,216
19972876,158,162,118,194,84,123,216
19977780,156,165,116,194,85,123,215
19982725,156,183,119,194,85,122,215
19987670,156,184,118,199,85,121,216
19992616,155,185,118,198,84,122,215
19997565,156,183,119,194,82,124,216
20002514,156,180,118,194,85,122,215
20007463,157,177,118,190,83,123,215
20012433,155,173,118,194,84,123,216
20017382,155,170,118,193,85,122,216
20022331,157,168,118,192,87,123,216
20027280,156,167,117,195,84,123,216
20032229,154,164,118,197,85,123,216
20037177,156,163,118,196,83,123,216
20042126,155,160,118,195,84,123,217
20046958,155,162,119,195,84,122,216
20051907,155,169,118,195,85,123,215
20056855,154,167,119,196,83,123,216
20061804,156,169,118,194,85,122,216
20066753,155,166,117,193,85,122,216
20071701,156,165,119,194,85,123,219
20076650,154,166,118,193,84,123,216
20081599,156,163,118,193,87,122,216
20086548,156,166,118,191,84,123,216
20091497,156,165,118,189,86,123,217
20096446,155,162,117,193,84,123,216
20101395,155,158,117,192,84,123,217
20106344,156,159,118,193,85,124,216
20111293,156,161,119,194,86,121,218
20116120,154,159,117,191,85,122,216
20121063,159,166,117,191,84,123,217
20126005,156,164,118,192,84,123,216
20130964,156,165,117,191,85,123,216
20135907,155,176,117,192,85,123,216
20140866,155,172,118,189,85,123,215
20145809,153,174,118,191,81,122,216
20150766,157,171,118,190,86,122,216
20155712,156,168,118,190,84,123,215
20160655,155,165,117,189,84,124,216
20165597,156,165,117,189,84,126,216
20170575,156,163,118,190,86,123,216
20175550,157,163,117,193,85,123,216
20180493,158,160,117,194,85,126,217
20185215,154,158,117,192,85,124,216
20190075,155,153,118,190,84,123,217
20194935,156,156,116,191,84,124,218
20199794,152,161,118,192,84,124,216
20204667,155,163,120,191,84,123,217
20209526,155,163,118,190,85,124,216
20214386,156,165,119,190,87,124,213
20219246,158,172,119,189,88,123,216
20224138,161,186,120,189,84,125,216
20228998,163,187,121,189,85,123,217
20233883,161,183,122,190,85,123,216
20238743,161,180,120,191,84,123,216
20243604,159,176,120,193,84,123,216
20248464,160,173,119,192,85,123,216
20252346,159,171,120,192,83,123,216
20257284,158,169,120,199,84,123,216
20262223,159,167,119,199,85,123,216
20267161,158,167,119,197,86,123,218
20272099,157,166,119,198,87,123,216
20277042,157,170,119,195,88,123,215
20281982,158,167,116,193,86,122,216
20286932,156,165,118,193,84,124,216
20291886,157,164,118,194,85,124,219
20296826,156,165,119,198,85,123,216
20301766,155,176,119,196,85,123,213
20306703,157,177,120,195,84,125,214
20311642,156,173,120,190,86,122,219
20316544,156,171,120,194,84,123,215
20321566,156,168,120,198,85,123,216
20326587,155,167,119,201,84,123,216
20331610,158,164,119,199,83,122,216
20336633,157,164,118,198,85,122,217
20341655,157,167,118,197,85,122,217
20346677,155,168,116,196,85,123,217
20351700,156,165,118,191,85,123,216
20356723,155,163,117,196,82,122,216
20361745,155,163,118,192,84,123,216
20366768,153,161,118,192,85,123,216
20371791,155,161,118,192,85,124,217
20376814,155,162,121,194,83,123,216
20381838,156,175,117,192,85,123,215
20386852,156,188,119,193,85,123,219
20391900,155,188,119,190,84,122,215
20396948,155,195,120,191,84,122,216
20401996,156,189,120,190,84,122,216
20407044,156,188,119,189,84,123,217
20412092,156,189,119,189,85,122,216
20417141,156,184,119,189,84,122,216
20422189,156,181,118,189,85,121,215
20427249,157,178,118,190,88,119,215
20432297,156,173,118,195,84,122,216
20437345,157,170,119,200,85,122,216
20442393,156,169,119,199,84,121,215
20447440,156,167,118,200,84,123,215
20452488,156,165,120,202,85,123,217
20457400,156,163,118,205,84,122,216
20462447,158,162,117,202,85,124,216
20467495,156,173,118,200,82,123,216
20472543,156,171,118,196,83,124,215
20477591,155,169,117,198,85,124,216
20482638,155,167,115,193,85,123,216
20487702,156,169,118,195,85,124,217
20492750,156,176,118,197,85,122,219
20497798,155,175,118,200,84,125,216
20502845,155,171,118,198,85,122,216
20507893,155,167,118,196,85,123,215
20512941,156,166,117,195,87,122,215
20517988,158,165,117,194,86,123,216
20523035,156,163,119,194,88,124,215
20527959,154,161,119,194,87,124,215
20532987,154,160,120,194,86,124,215
20538016,155,163,119,191,86,124,216
20543044,154,175,118,191,87,124,216
20548073,155,171,119,189,86,125,215
20553101,156,174,118,190,86,124,212
20558130,155,178,118,191,84,124,216
20563158,155,176,118,191,86,124,217
20568186,155,173,118,192,86,123,217
20573215,155,170,118,193,86,123,216
20578244,155,166,118,197,85,124,216
20583273,154,166,117,197,85,124,216
20588302,155,170,117,198,85,123,215
20593330,157,168,120,197,86,123,218
20598181,155,167,118,197,84,121,215
20603212,155,165,118,196,85,123,216
20608241,155,163,118,197,83,123,216
20613269,155,162,118,198,85,126,216
20618299,154,161,119,196,85,123,217
20629053,156,167,119,193,84,123,215
20633969,155,171,118,193,86,123,216
20638931,154,170,119,192,84,126,216
20643894,156,168,118,193,85,121,216
20648858,154,165,118,190,83,124,215
20653822,154,163,118,190,86,122,216
20658787,154,161,119,189,85,123,216
20663751,155,160,118,198,84,120,216
20668722,157,158,118,203,85,120,214
20673575,155,157,117,205,84,120,216
20678583,154,161,117,204,83,120,216
20683590,155,159,118,202,84,122,215
20688597,160,159,118,204,85,122,216
20693605,155,164,117,202,84,122,213
20698612,156,166,118,200,85,122,218
20703619,157,165,117,199,86,123,215
20708626,158,163,117,197,83,122,216
20713634,156,177,118,196,84,119,215
20718642,157,194,117,196,85,124,213
20723650,157,195,119,194,84,123,215
20728658,157,190,117,193,86,123,216
20733666,157,185,117,192,84,123,215
20738572,155,182,117,192,86,123,215
20743496,155,177,117,196,84,123,214
20748420,155,174,118,196,84,123,216
20753344,154,173,117,196,85,123,215
20758268,157,177,118,196,84,122,216
20763222,156,176,118,194,84,122,215
20768159,154,177,118,193,84,123,216
20773083,154,175,118,189,84,123,215
20778007,155,171,118,193,86,123,215
20782931,155,168,118,191,84,123,216
20787855,156,166,117,191,85,122,215
20792780,155,165,118,192,84,122,214
20797704,155,163,116,193,84,123,216
20802629,155,161,117,192,86,124,215
20807688,154,161,117,193,84,126,215
20812699,155,159,117,195,84,123,216
20817709,156,158,119,194,84,123,216
20822718,155,157,116,193,83,123,215
20827730,155,156,117,193,85,123,216
20832740,154,164,114,193,84,123,216
20837749,156,161,117,192,83,123,216
20842760,156,168,117,192,84,123,215
20847772,157,167,117,191,85,122,216
20852781,159,165,117,190,84,122,215
20857791,157,164,118,189,84,122,215
20862803,156,163,118,189,85,122,215
20867815,156,162,120,187,85,122,215
20872824,156,159,117,186,84,122,216
20877735,158,156,117,188,84,123,217
20882829,157,158,118,188,85,122,215
20887923,156,157,118,188,85,122,216
20893014,155,155,118,188,84,123,216
20898109,156,155,117,188,86,123,215
20903203,155,153,118,189,84,122,216
20908297,154,155,118,194,84,119,215
20913389,155,160,118,192,85,123,216
20918484,155,170,118,193,84,122,215
20923578,156,174,118,193,84,122,215
20928672,158,171,118,193,84,122,215
20933766,159,169,117,198,84,122,216
20938860,157,168,118,199,86,122,218
20943954,157,166,116,198,84,122,213
20948975,156,161,118,196,84,123,215
20954103,157,161,117,198,84,122,212
20959230,157,160,117,199,85,123,216
20964357,161,158,118,199,84,120,216
20969484,156,155,117,196,85,123,215
20974630,156,156,117,195,84,123,215
20979757,157,155,117,195,82,121,215
20984884,160,153,118,195,85,120,216
20990011,156,153,117,196,85,123,216
20995139,156,155,118,196,83,122,216
21000266,156,160,118,196,84,123,216
21005394,156,159,118,199,84,122,216
21010582,156,170,117,195,84,123,215
21015709,155,171,118,194,85,123,213
21020628,157,167,117,193,84,118,215
21025755,156,165,119,193,85,123,215
21030882,157,161,118,194,85,122,216
21036009,157,162,117,196,84,123,216
21041136,156,161,117,196,84,122,215
21046263,156,162,118,196,86,123,214
21051393,154,161,118,199,85,122,215
21056520,158,159,118,199,85,123,215
21061657,154,160,118,198,85,123,214
21066784,157,160,114,201,84,122,214
21071911,157,158,116,201,84,124,214
21077038,160,161,117,198,85,122,214
21082165,156,156,117,198,85,122,215
21087292,155,153,117,197,85,123,214
21092226,154,154,118,197,85,123,214
21097334,155,161,118,196,84,121,214
21102441,156,177,117,198,87,125,215
21107549,155,173,117,196,85,120,215
21112657,156,170,118,196,85,124,215
21117765,154,167,117,195,85,122,216
21122872,155,169,117,195,81,122,215
21127980,153,163,117,193,84,122,215
21133088,154,162,117,193,85,122,215
21138196,157,160,119,192,85,122,215
21143304,156,159,117,196,85,122,216
21148411,155,159,117,197,85,123,215
21153520,157,161,117,199,85,123,215
21158610,156,156,118,198,83,123,215
21163718,156,159,117,197,85,124,214
21168826,157,157,118,195,84,122,215
21173937,157,156,116,197,82,122,215
21179045,156,155,118,198,84,122,215
21184153,156,155,117,196,85,121,215
21189262,154,154,117,195,85,122,215
21194373,154,152,117,194,85,122,215
21199481,156,153,117,193,89,121,216
21204589,156,155,118,193,87,122,215
21209700,153,173,118,192,85,123,215
21214810,156,173,117,193,86,123,215
21219918,155,171,118,192,85,123,214
21225027,157,173,117,191,85,124,215
21230074,156,170,117,191,85,124,216
21235178,155,169,118,194,85,124,216
21240280,155,166,117,193,88,124,215
21245385,155,168,117,191,85,124,216
21250489,155,169,117,191,85,125,215
21255594,156,166,118,191,85,123,216
21260697,155,167,117,192,85,122,215
21265802,157,165,117,192,85,123,216
21270907,156,166,117,191,84,123,215
21276011,155,164,117,190,85,122,216
21281118,155,163,117,190,84,122,214
21286226,157,162,117,190,85,122,215
21291335,156,161,116,193,85,123,214
21296444,155,158,117,195,82,123,214
21301380,154,162,117,193,85,122,215
21306404,156,173,116,195,82,123,215
21311428,156,191,119,195,83,123,215
21316452,154,188,119,197,86,122,216
21321475,155,184,116,195,85,123,215
21326499,155,181,118,196,85,122,216
21331523,154,179,118,196,85,122,215
21336547,156,177,119,197,85,122,215
21341570,155,171,119,197,84,123,216
21346594,156,170,119,196,85,123,215
21351618,157,165,118,194,85,122,216
21356641,156,166,118,193,85,122,214
21361665,155,163,118,196,85,122,215
21366689,154,162,116,195,84,122,217
21371244,156,162,118,196,85,122,215
21375889,156,160,117,194,86,122,215
21380553,154,160,117,195,85,121,216
21385218,154,160,117,195,84,123,215
21389882,155,165,118,195,84,120,216
21394547,155,167,117,195,83,122,215
21399211,156,164,118,194,85,122,216
21403875,156,165,117,194,85,123,216
21408555,156,170,117,194,85,123,216
21413219,157,169,119,192,84,123,215
21417884,156,172,118,192,84,123,215
21422562,154,172,120,189,84,123,215
21427240,155,169,119,190,84,123,215
21431908,155,167,120,193,85,122,216
21436411,155,165,119,190,84,122,215
21441157,155,163,118,190,85,123,216
21445903,154,163,119,189,86,122,215
21450650,154,161,118,191,85,122,218
21455396,154,159,118,190,85,123,215
21460143,154,159,119,190,85,122,214
21464889,155,159,118,190,85,122,215
21469636,158,158,118,192,84,123,215
21474382,155,169,118,192,87,121,215
21479140,156,167,117,192,85,123,212
21483901,156,165,118,192,84,122,215
21488648,156,169,118,191,85,123,216
21493395,156,165,117,194,84,122,215
21498141,159,163,118,195,84,122,216
21502692,156,165,118,195,84,122,215
21507422,156,178,118,194,84,122,215
21512152,156,174,118,194,85,123,218
21516882,156,171,116,192,85,123,215
21521612,155,169,117,192,85,122,216
21526343,155,167,118,192,84,122,215
21531074,155,169,118,193,86,121,215
21535804,156,164,118,193,86,123,214
21540534,156,163,118,191,86,122,215
21545284,157,160,117,191,85,123,215
21550015,158,163,116,190,86,123,215
21554745,155,167,117,189,85,123,215
21559476,156,164,117,189,84,123,215
21564190,156,163,117,191,84,122,215
21568921,156,162,117,192,85,123,215
21573651,154,161,118,193,85,123,214
21578382,155,160,117,193,84,123,211
21583114,155,158,118,194,86,122,214
21587845,157,158,118,193,86,122,215
21592575,157,157,117,191,85,123,214
21597307,156,156,117,192,84,122,214
21602039,157,155,117,196,85,123,215
21606770,157,154,118,193,84,122,212
21611501,157,155,117,192,85,123,216
21616233,153,162,117,197,85,122,215
21620965,155,157,118,203,85,121,214
21625696,156,162,117,201,86,123,212
21630379,156,162,117,200,86,123,213
21635097,155,164,117,199,85,122,214
21639815,156,168,117,198,85,122,214
21644533,156,168,117,197,86,121,214
21649250,156,166,117,197,85,122,214
21653968,155,164,117,196,84,122,215
21658686,154,162,117,194,84,122,215
21663404,157,162,117,194,85,123,214
21668145,156,159,117,193,84,123,213
21672863,156,158,117,193,86,124,214
21677580,155,158,118,192,85,123,214
21682297,156,157,117,192,85,122,214
21687015,154,156,117,192,85,123,214
21691733,153,155,119,189,85,123,214
21696379,156,154,117,192,85,123,215
21701096,157,153,118,194,85,122,215
21705842,155,152,117,194,86,123,214
21710560,158,156,117,192,85,122,214
21715278,156,160,117,194,85,123,215
21719995,155,158,117,195,85,122,214
21724713,155,164,117,192,86,123,215
21729431,155,162,118,193,84,122,215
21734149,154,160,120,192,85,123,215
21738866,156,158,118,192,84,121,215
21743584,155,157,117,193,85,122,214
21748301,156,156,117,192,84,124,215
21753019,155,155,116,193,85,124,216
21757736,155,155,117,196,85,124,215
21762335,155,162,118,196,84,124,215
21767043,155,162,117,196,87,124,216
21771752,155,161,117,194,85,126,213
21776461,155,161,117,193,85,124,215
21781169,154,162,117,194,85,124,215
21785877,155,162,118,192,86,123,216
21790586,156,161,118,191,85,123,216
21795294,156,161,118,191,87,123,215
21800003,152,159,117,194,86,124,215
21804712,153,158,118,194,86,123,215
21809421,155,163,117,194,85,124,215
21814130,156,162,117,198,85,123,215
21818838,154,159,117,200,85,123,215
21823547,155,158,115,197,83,123,215
21828035,154,157,118,196,85,123,215
21832661,155,156,117,197,88,123,215
21837287,156,155,117,195,83,123,216
21841913,155,154,117,195,86,122,215
21846539,155,154,117,194,85,123,214
21851166,156,153,116,193,84,122,213
21855791,155,152,116,196,85,125,214
21860417,155,152,117,191,86,122,214
21865044,155,154,117,196,85,123,214
21869671,155,172,117,194,85,123,214
21874296,156,178,118,194,84,124,214
21878922,155,181,118,194,86,123,213
21883551,155,180,118,193,84,123,214
21893849,156,173,118,195,85,122,213
21898461,155,170,117,195,85,122,214
21903173,155,169,117,197,87,122,215
21907896,154,166,117,197,86,122,215
21912620,155,164,117,199,86,122,214
21917344,155,163,117,195,87,123,214
21922068,155,161,117,194,87,122,215
21926793,156,161,119,194,87,123,214
21931545,154,160,118,193,86,124,216
21936312,155,177,119,191,86,124,215
21941080,154,174,119,193,84,124,215
21945848,155,173,119,192,86,125,215
21950616,155,171,119,195,87,124,215
21955384,156,171,119,193,85,123,214
21960135,157,171,118,196,86,123,216
21964982,156,176,118,196,86,123,215
21969830,155,171,118,194,86,123,215
21974678,156,167,118,194,86,123,215
21979526,156,165,118,193,85,122,215
21984375,156,164,118,192,86,124,215
21989223,154,162,117,191,84,127,215
21994071,155,162,114,192,85,123,215
21998920,155,166,117,193,86,122,216
22003768,156,165,117,194,85,125,215
22008616,156,162,117,196,84,123,215
22013465,156,162,116,196,85,120,215
22018313,155,163,117,197,85,122,216
22023162,157,164,118,196,85,123,219
22027949,155,165,118,197,84,124,215
22032781,155,168,119,197,84,124,215
22037613,155,165,118,196,84,123,215
22042445,156,164,118,195,84,122,215
22047277,155,163,118,194,85,123,215
22052110,155,160,117,193,84,122,214
22056943,155,157,117,192,87,122,215
22061776,157,159,118,191,84,122,215
22066610,158,157,117,191,83,122,215
22071444,156,156,118,191,87,123,214
22076277,155,160,118,193,84,122,214
22081111,158,166,117,197,87,123,213
22085946,156,171,118,196,84,122,214
22090779,156,177,117,195,85,122,213
22095524,160,180,117,195,85,122,214
22100359,160,177,117,194,85,123,214
22105193,158,174,118,194,86,123,214
22110026,159,174,117,194,84,123,214
22114860,161,176,118,194,85,123,213
22119695,157,177,117,193,86,122,214
22124529,158,174,118,193,84,123,214
22129362,157,172,118,191,83,122,215
22134196,157,168,118,190,84,122,215
22139031,157,166,117,191,84,122,214
22143865,157,165,118,193,84,122,215
22148698,157,164,117,192,84,122,215
22153533,157,163,117,194,83,122,215
22158368,156,162,117,196,84,120,215
22163083,156,161,118,197,85,122,216
22167902,156,160,117,200,83,123,215
22172721,155,159,117,199,85,123,216
22177540,155,162,118,198,84,122,215
22182358,156,172,117,197,85,123,215
22187177,155,180,117,196,85,121,214
22192027,156,196,117,196,85,122,217
22196846,156,191,117,197,85,126,216
22201665,154,185,117,196,85,122,219
22206484,156,182,117,196,83,123,214
22211304,156,179,117,198,85,123,212
22216124,156,172,117,197,83,123,212
22220944,155,173,117,195,85,123,212
22225767,155,170,118,194,83,122,211
22230446,155,166,116,194,84,123,214
22235266,154,165,117,194,84,122,212
22240086,155,166,117,197,84,122,211
22244905,156,165,116,196,83,122,212
22249725,157,165,116,194,84,121,212
22254545,158,164,117,193,85,122,213
22259364,156,173,117,194,84,122,213
22264184,156,183,117,196,84,122,215
22269003,158,190,116,196,86,123,213
22273823,156,188,116,195,84,123,213
22278647,157,182,117,194,85,123,213
22283466,156,179,117,194,85,123,214
22288304,156,176,117,195,86,122,213
22293124,157,173,117,194,85,121,215
22297776,156,171,117,194,85,123,214
22302587,155,168,117,195,88,122,214
22307398,156,166,117,194,84,122,213
22312209,154,163,118,192,85,121,213
22317019,156,162,117,191,85,123,213
22321844,156,164,117,194,86,122,213
22326654,156,163,115,193,85,122,214
22331465,155,162,118,192,84,122,215
22336275,157,170,117,191,83,125,215
22341086,156,179,118,192,85,124,214
22345897,155,188,118,191,85,122,215
22350708,156,184,118,192,85,122,215
22355518,156,183,118,189,84,123,217
22360230,155,194,118,191,84,123,215
22364959,155,187,117,191,84,123,214
22369687,156,183,117,187,84,123,215
22374415,155,180,117,189,85,124,215
22379143,157,178,116,191,86,124,215
22383872,156,174,118,193,83,123,215
22388600,156,171,117,204,85,123,214
22393329,155,169,117,206,86,122,214
22398057,153,168,119,208,84,124,214
22402786,155,169,117,205,84,122,215
22407515,155,174,119,203,84,123,215
22412244,155,184,119,200,84,123,216
22416973,155,186,119,199,85,122,215
22421701,155,184,119,199,84,123,215
22426636,154,180,118,197,85,122,214
22431486,155,177,118,196,86,121,214
22436335,155,176,119,197,86,123,214
22441186,156,184,118,195,85,124,214
22446038,156,182,118,197,84,124,215
22450888,154,187,118,193,85,126,215
22455738,156,183,118,194,88,123,216
22460590,155,180,118,193,85,122,214
22465442,154,176,117,193,84,123,215
22470292,154,173,117,191,85,123,215
22475143,156,171,117,190,84,123,215
22479995,154,168,117,190,85,124,213
22484847,155,170,119,190,84,122,212
22489698,156,174,117,190,84,123,212
22494492,155,173,117,192,84,121,214
22499424,156,171,117,190,85,122,214
22504356,155,169,116,192,84,121,214
22509289,155,167,119,190,83,121,214
22514224,155,165,121,190,84,122,215
22519160,156,168,120,190,86,122,214
22524096,156,176,120,190,85,121,215
22529031,157,175,119,188,85,124,215
22533968,157,181,118,190,86,123,215
22538905,156,178,119,189,84,121,214
22543841,156,179,121,188,85,121,214
22548778,156,183,118,188,85,122,214
22553714,156,184,117,189,85,122,215
22558651,156,180,117,191,85,122,215
22563547,156,176,118,189,84,123,215
22568484,156,172,120,189,85,121,215
22573420,153,168,119,189,85,123,215
22578356,157,168,118,194,86,122,216
22583292,156,166,117,192,84,123,215
22588229,157,166,118,191,85,123,214
22593165,156,165,118,189,86,123,215
22598102,156,165,119,188,85,123,215
22603038,156,171,117,188,85,122,212
22607975,157,171,118,188,85,123,216
22612911,157,170,115,187,85,122,215
22617847,156,172,117,187,86,123,215
22622784,157,170,117,187,84,122,216
22627720,158,169,119,188,84,122,215
22632530,157,165,117,186,85,122,215
22637465,156,164,117,186,84,123,215
22642401,155,163,117,188,85,123,215
22647364,157,163,116,187,85,123,216
22652299,156,163,117,188,85,122,215
22657235,155,161,118,187,84,123,215
22662173,156,161,117,188,86,123,215
22667108,156,159,117,189,85,123,215
22672061,158,159,118,191,83,123,215
22676997,160,160,118,193,84,122,216
22681946,156,162,117,192,85,123,216
22686894,158,166,116,191,84,122,215
22691847,157,164,116,193,85,122,215
22696790,157,162,118,194,84,122,215
22701625,156,161,117,190,84,122,212
22706572,156,159,116,190,85,123,215
22711563,156,159,117,190,85,123,215
22716499,154,163,117,189,84,122,215
22721451,156,163,117,189,84,123,216
22726391,152,162,116,188,85,120,218
22731352,156,160,117,189,83,120,215
22736303,155,159,117,192,86,121,215
22741239,154,157,118,193,85,121,215
22746175,156,156,117,192,88,122,215
22751110,155,155,117,189,87,122,215
22756046,155,161,118,189,87,123,216
22760983,154,174,117,189,87,124,216
22765920,156,179,117,189,84,124,215
22769971,155,178,117,189,86,124,214
22774915,155,183,117,188,86,125,215
22779852,155,180,117,188,86,124,216
22784789,158,177,117,187,87,124,216
22789724,155,174,120,188,86,124,215
22794660,155,171,117,187,86,123,215
22799599,156,169,117,188,86,123,216
22804536,156,167,117,188,85,124,215
22809471,155,165,117,190,84,123,216
22814427,155,164,117,189,85,123,215
22819365,156,164,117,190,86,124,215
22824302,157,173,116,191,86,123,216
22829238,156,170,117,190,87,122,214
22834155,153,175,117,189,85,123,218
22839093,155,190,119,187,85,123,215
22844030,156,195,117,188,86,122,214
22848967,156,190,117,189,86,122,216
22853906,155,186,117,187,85,122,216
22858844,156,182,117,188,84,123,216
22863781,155,176,117,188,86,122,214
22868719,154,174,117,188,83,123,215
22873658,156,172,117,188,85,122,216
22878597,156,170,116,187,84,122,215
22883535,155,167,115,187,85,122,215
22888473,155,167,115,189,86,122,216
22893412,155,171,117,189,85,122,215
22898350,156,168,118,187,85,122,215
22903145,155,166,118,188,85,122,216
22908001,155,166,118,188,84,118,215
22912858,156,183,118,189,85,123,216
22917714,156,178,118,186,84,122,216
22922570,156,178,119,187,85,121,215
22927427,156,174,118,187,84,122,212
22932298,157,172,117,189,84,124,216
22937154,156,170,118,187,83,123,215
22942011,158,172,117,187,83,122,215
22946867,156,184,118,187,84,122,216
22951723,153,182,118,187,84,122,215
22956580,155,179,118,186,82,122,215
22961436,155,176,117,188,84,122,215
22966292,154,172,117,188,85,122,216
22974692,155,172,125,191,85,124,215
22979369,155,168,125,189,84,123,216
22983993,155,169,131,193,85,122,216
22988624,155,169,128,191,84,122,216
22993255,156,168,128,191,85,122,216
22997886,155,168,129,190,87,123,216
23002518,156,169,128,191,85,122,216
23007149,155,173,126,190,84,123,215
23011780,155,171,125,189,85,122,215
23016411,155,169,124,191,85,122,216
23021042,154,167,123,190,84,123,214
23025674,155,166,123,190,84,122,216
23030305,155,164,122,189,85,123,216
23034937,156,162,121,188,85,123,212
23039470,156,161,121,189,85,123,215
23044182,155,162,121,188,85,123,216
23048894,155,170,124,189,85,123,215
23053606,154,171,121,188,85,124,216
23058318,155,195,120,187,85,124,215
23063030,156,199,120,187,85,122,215
23067742,156,194,120,187,84,123,214
23072454,154,190,119,188,83,125,216
23077165,156,186,119,188,84,127,215
23081877,155,182,119,190,84,125,215
23086588,156,180,119,194,85,124,216
23091301,156,176,119,194,85,124,216
23096013,156,173,117,193,84,124,214
23100725,154,170,117,190,85,123,214
23105280,156,168,117,192,84,123,215
23110019,156,167,118,192,84,123,215
23114756,157,166,117,191,85,123,217
23119493,156,166,118,193,85,124,215
23124231,156,168,120,194,82,123,215
23134693,157,178,120,195,85,123,215
23139317,156,176,119,195,85,122,215
23143990,155,172,120,194,85,123,216
23148664,156,171,119,194,87,122,215
23153338,156,167,120,198,86,124,218
23158013,156,166,119,197,85,123,215
23162688,158,165,119,196,85,123,215
23167362,155,163,118,195,85,122,215
23172043,154,160,117,193,86,123,216
23176564,156,160,118,194,86,122,215
23181287,155,161,119,194,84,123,215
23186011,156,173,119,192,85,122,215
23190734,154,182,118,191,84,122,215
23195457,156,188,118,191,85,124,216
23200180,156,184,119,191,86,123,216
23204903,155,180,118,189,84,123,214
23209625,156,180,119,190,85,122,215
23214349,157,174,118,191,85,122,216
23219074,156,173,118,195,85,122,212
23223797,156,171,118,197,83,121,218
23228521,155,176,118,192,85,121,216
23233245,156,171,116,193,86,122,215
23237969,155,169,118,198,85,121,215
23242674,155,167,118,201,85,121,214
23247379,156,165,118,199,85,123,214
23252084,156,166,118,199,84,122,214
23256789,155,172,118,197,85,123,216
23261516,155,171,117,199,84,123,215
23266249,154,178,118,198,86,123,216
23270973,156,178,118,196,84,122,215
23275689,155,181,117,197,88,123,215
23280394,155,178,118,201,84,121,215
23285099,156,177,118,200,85,124,214
23289805,155,173,117,199,84,122,215
23294511,155,171,118,197,85,127,216
23299217,155,167,118,197,84,121,214
23303849,154,166,118,196,85,124,216
23308555,155,165,117,195,87,126,215
23313261,156,163,118,193,85,124,216
23317966,155,165,118,193,85,122,215
23322686,156,164,117,192,85,123,215
23327392,156,167,117,192,87,123,215
23332098,157,175,117,193,85,122,215
23336804,158,186,118,191,84,122,215
23341512,158,183,117,191,85,123,215
23346218,156,181,117,196,84,122,215
23350924,157,182,118,197,84,123,215
23355632,158,185,117,199,85,123,214
23360340,156,188,118,200,85,122,215
23365046,156,185,119,202,84,121,215
23369653,156,182,120,200,84,122,215
23374355,159,182,120,199,85,122,216
23379057,156,178,119,199,84,122,215
23383757,156,175,119,198,84,122,216
23388459,155,172,120,197,85,121,214
23393161,155,170,119,197,84,122,215
23397864,157,167,118,198,85,124,216
23402565,156,166,119,198,85,123,215
23407267,156,163,116,197,84,124,215
23411969,156,163,118,196,85,123,215
23416671,158,164,118,194,85,126,215
23421373,156,179,119,195,85,123,215
23426076,155,182,117,194,82,123,215
23430778,155,182,117,194,84,124,215
23435266,154,183,117,193,84,123,215
23439888,158,191,117,194,86,123,215
23444509,156,187,118,192,85,122,215
23449130,155,185,118,190,84,126,214
23453751,155,181,118,189,84,123,214
23458372,155,178,118,190,86,123,215
23462993,156,175,118,193,85,121,215
23467613,156,172,118,198,84,123,215
23472234,157,169,118,198,85,123,215
23476855,155,167,117,198,84,123,215
23481476,156,165,117,197,84,123,215
23486096,155,164,117,197,84,122,217
23490717,156,163,117,197,84,123,215
23495339,157,171,116,197,84,122,214
23500030,155,170,118,195,85,123,215
23504745,155,168,117,193,85,122,215
23509472,154,166,118,194,85,124,215
23514228,156,165,117,196,84,124,215
23518967,155,164,118,197,88,124,216
23523703,156,166,118,198,85,123,216
23528430,157,164,118,198,84,122,216
23533156,155,163,118,197,85,123,215
23537882,155,161,118,197,84,122,214
23542618,154,158,114,196,85,122,215
23547345,156,158,118,196,86,121,215
23552071,155,162,117,204,85,122,216
23556797,155,180,117,201,85,122,215
23561523,163,179,119,205,84,122,214
23566073,154,177,119,203,86,123,215
23570879,154,180,119,204,86,122,215
23575686,156,181,119,203,86,123,215
23580492,157,181,119,201,86,122,216
23585299,155,176,121,199,86,124,215
23590106,156,173,119,199,86,124,215
23594913,156,175,118,197,85,123,216
23599719,156,172,119,196,86,123,215
23604526,156,170,119,197,85,124,215
23609333,156,170,118,196,85,123,216
23614139,155,167,119,200,85,123,216
23618946,155,165,118,201,85,125,216
23623754,156,164,118,200,85,123,216
23628552,156,162,118,202,85,123,215
23633384,156,160,118,201,84,123,215
23638216,155,159,117,199,84,123,216
23643050,156,166,118,198,83,127,215
23647882,156,195,118,198,86,123,215
23652713,156,206,118,197,84,123,215
23657546,156,198,118,198,85,123,215
23662379,159,193,117,197,86,126,216
23667211,156,188,118,199,85,124,216
23672042,156,186,117,204,85,123,215
23676876,156,181,117,206,84,123,216
23681710,157,178,115,204,84,123,216
23686541,158,176,118,206,85,122,214
23691375,155,173,117,209,84,122,216
23696128,157,167,117,207,85,123,215
23700961,157,168,117,205,83,121,215
23705793,158,166,118,204,85,123,215
23710627,156,165,119,202,84,122,212
23715460,156,165,116,201,86,122,215
23720294,156,171,118,200,83,122,215
23725126,155,172,118,200,85,123,215
23729959,156,170,118,199,86,123,216
23734793,156,169,118,201,84,122,217
23739627,156,175,118,202,84,123,215
23744461,156,171,118,201,85,124,215
23749298,155,169,118,199,84,124,215
23754135,156,171,117,199,85,124,216
23758972,155,178,117,200,86,125,216
23763748,155,174,117,200,84,123,216
23768566,155,172,117,201,85,123,215
23773384,156,169,117,198,85,123,215
23778202,155,167,117,198,85,123,215
23783021,156,165,117,197,83,122,215
23787839,154,163,117,196,84,122,214
23792657,154,161,119,194,86,122,215
23797475,156,164,119,195,85,122,217
23802293,156,178,119,195,85,123,216
23807112,156,182,120,193,86,122,215
23811930,155,181,119,195,85,123,212
23816748,157,184,119,194,85,123,215
23821566,156,184,119,193,86,123,215
23826384,157,180,117,193,85,125,215
23831066,157,177,119,192,85,124,214
23835884,155,174,119,190,85,125,215
23840703,156,171,118,190,86,123,216
23845521,155,168,118,192,85,123,215
23850339,155,166,118,192,85,123,215
23855157,156,165,118,195,84,123,215
23859975,157,163,117,195,85,124,216
23864793,155,162,117,194,85,122,215
23869614,156,161,117,195,86,123,215
23874479,155,160,118,194,84,123,216
23879312,157,161,118,192,84,123,215
23884144,156,159,118,193,82,122,215
23888997,156,162,118,195,85,123,214
23893815,157,166,118,197,85,122,216
23898518,155,165,117,197,85,122,214
23903334,155,162,117,197,83,123,216
23908146,154,172,117,197,85,123,215
23912959,155,176,117,196,85,122,215
23917780,157,172,116,195,85,122,215
23922610,155,169,117,193,86,123,216
23927423,154,168,117,193,85,121,213
23932270,156,165,117,193,84,124,215
23937116,154,164,117,192,84,122,215
23941928,155,163,117,193,85,123,216
23946740,155,163,117,194,85,122,216
23951552,156,163,117,196,84,121,215
23956365,156,162,119,201,85,122,216
23961196,152,161,117,204,84,123,216
23965748,156,159,117,201,85,124,217
23970478,155,159,116,200,86,124,218
23975222,156,169,118,200,84,125,216
23979963,158,168,118,199,86,126,215
23984692,156,174,118,199,85,125,215
23989422,158,171,118,197,85,123,216
23994152,155,169,117,197,86,124,215
23998881,157,166,117,194,84,124,216
24003611,155,164,117,196,85,123,215
24008343,153,168,118,195,83,124,216
24013072,155,185,117,196,85,123,215
24017802,155,183,118,195,85,123,216
24022533,155,180,117,195,85,123,216
24027469,155,177,117,194,88,119,215
24032331,155,173,117,194,85,125,214
24037209,155,172,117,194,85,127,215
24042074,154,169,117,194,85,125,213
24046939,155,167,118,193,85,126,216
24051801,156,165,118,192,86,124,215
24056664,155,164,118,196,85,126,214
24061529,155,165,117,195,84,124,213
24066394,156,165,118,195,85,124,214
24071256,156,167,117,202,85,124,214
24076121,155,166,118,202,85,126,214
24080987,155,164,118,202,85,124,214
24085851,156,167,118,200,85,124,214
24090715,155,165,118,200,85,123,214
24095541,156,164,118,200,85,123,214
24100487,155,164,118,198,85,125,216
24105433,155,165,117,199,86,127,215
24110380,157,164,118,198,84,128,214
24115326,155,164,117,197,86,126,215
24120277,156,161,118,198,86,128,214
24125223,155,161,117,196,85,128,214
24130169,156,159,117,198,86,127,216
24135121,158,158,117,194,86,127,215
24140067,156,156,117,198,86,125,211
24145013,155,155,117,195,86,125,215
24149960,155,158,116,197,84,125,216
24154906,155,167,117,197,85,125,216
24159852,154,165,118,195,84,127,215
24164726,156,166,117,196,86,124,215
24169697,155,164,117,197,84,124,215
24174668,156,163,118,196,86,124,215
24179639,157,163,117,195,85,124,215
24184611,156,161,117,195,85,125,215
24189582,155,172,118,195,85,127,216
24194553,155,169,117,193,86,126,215
24199524,154,166,117,197,85,125,215
24204495,156,164,120,209,84,125,215
24209466,156,162,118,208,83,125,216
24214437,155,161,117,206,83,124,213
24219409,155,159,117,205,86,124,210
24224388,156,158,118,202,87,123,208
24229359,156,164,115,200,85,123,210
24234188,156,166,117,201,86,124,209
24239159,157,166,117,202,85,124,209
24244129,155,161,117,201,84,123,210
24249100,156,160,116,201,84,124,209
24254071,155,159,118,203,84,124,211
24259041,157,157,117,203,86,124,211
24264017,156,156,118,204,85,127,210
24268988,154,157,117,203,85,124,212
24273958,155,155,117,201,85,124,212
24278929,156,155,117,204,84,124,214
24283899,155,154,117,205,86,123,213
24288870,156,153,117,200,84,123,212
24293841,156,152,117,202,84,122,212
24298812,156,153,116,200,86,123,212
24303620,156,156,117,200,86,124,208
24308571,156,165,117,198,86,124,201
24313523,155,162,121,198,85,121,202
24318475,156,165,121,198,85,125,203
24323428,155,165,120,197,84,124,204
24328380,154,163,120,199,86,127,204
24333331,155,161,121,197,85,124,205
24338284,154,164,121,196,84,125,207
24343238,152,164,119,196,86,124,208
24348190,155,162,119,198,87,124,209
24353142,154,161,119,204,84,125,209
24358096,153,158,119,205,86,124,208
24368773,156,158,119,202,87,124,209
24373611,156,155,118,199,86,124,211
24378319,154,154,119,199,87,124,212
24383205,155,156,117,199,87,125,210
24388091,158,161,118,201,88,127,212
24392979,154,164,117,204,86,125,211
24397866,155,169,119,203,87,125,212
24402754,156,167,118,203,87,125,211
24407648,155,164,117,202,87,128,212
24412584,155,164,117,200,86,124,212
24417520,155,162,117,200,86,126,213
24422456,154,161,117,199,85,124,216
24427392,154,157,117,198,84,128,213
24432329,156,157,118,202,87,127,215
24437265,154,156,117,201,84,126,211
24442201,155,155,117,211,86,129,212
24447130,156,155,118,210,87,126,212
24452061,156,154,117,209,86,128,212
24456992,155,153,117,208,86,124,213
24461923,154,153,116,207,85,123,213
24466854,156,156,118,206,85,124,213
24471785,155,168,118,208,85,128,213
24476717,156,167,118,210,86,124,213
24481648,156,164,118,208,84,123,214
24486578,155,163,118,205,85,123,214
24491510,154,163,118,201,85,124,214
24496440,155,161,117,203,85,122,214
24501405,155,160,118,204,85,123,214
24506346,155,158,117,198,85,127,214
24511177,154,155,118,201,87,125,215
24516026,155,155,117,199,84,124,214
24520876,155,155,118,199,86,124,215
24525725,155,154,117,196,86,124,215
24530575,155,156,117,195,87,123,215
24535425,155,157,118,198,85,123,215
24540275,156,156,118,201,85,124,214
24545127,155,161,117,199,85,123,214
24549977,156,160,117,200,84,123,214
24554827,155,156,118,203,85,123,215
24559677,159,157,118,206,85,123,216
24564530,155,155,117,205,86,123,212
24569380,156,156,117,203,83,126,216
24574230,155,156,117,201,84,122,215
24579201,155,156,117,200,85,124,218
24584139,155,155,118,199,84,124,215
24589078,156,154,117,197,85,123,216
24594006,155,154,116,197,86,123,215
24598935,155,153,117,195,85,122,215
24603865,155,154,117,195,85,122,213
24608792,155,153,120,194,85,126,215
24613720,155,153,117,192,85,124,215
24618650,155,153,117,193,84,124,217
24623580,157,165,117,194,84,125,216
24628507,155,165,117,192,87,121,217
24633436,155,167,117,192,85,124,215
24638366,155,168,117,194,86,123,215
24643295,156,180,117,195,85,123,213
24648124,156,177,117,195,85,124,214
24653136,155,174,117,196,85,123,215
24658147,155,170,117,200,85,124,215
24663159,156,168,117,199,84,123,215
24668170,154,167,117,198,84,124,214
24673182,155,165,118,198,85,123,210
24678193,156,161,117,196,84,124,209
24683205,154,161,116,197,86,123,209
24688217,156,160,117,195,85,124,208
24693229,154,159,118,197,84,126,210
24698242,155,158,119,198,83,123,210
24703254,155,160,118,196,86,126,210
24708299,156,161,118,195,86,123,209
24713312,155,164,118,195,83,126,211
24718188,155,159,119,195,85,126,211
24723225,156,161,119,194,85,125,210
24728262,156,166,119,193,85,125,212
24733300,155,163,118,192,86,125,213
24738337,155,162,118,193,83,125,213
24743381,155,161,118,194,84,125,212
24748418,156,158,118,193,85,126,212
24753460,157,158,118,196,85,125,213
24758497,156,155,117,199,84,124,212
24763534,156,157,118,199,83,125,211
24768571,156,156,117,199,85,125,212
24773608,156,153,117,198,85,126,212
24778658,156,153,117,197,86,123,211
24783699,159,152,117,196,86,127,213
24788535,160,153,117,196,86,127,212
24793541,157,159,116,193,85,125,212
24798579,156,157,117,196,84,125,212
24803616,156,157,118,197,85,125,213
24808653,156,155,118,198,84,128,213
24813690,156,155,118,198,84,126,214
24818727,155,159,118,194,85,122,213
24823765,156,155,117,195,84,124,213
24828801,155,154,117,196,83,123,212
24833839,156,155,118,194,84,123,210
24838876,157,153,117,193,83,124,211
24843912,156,149,118,194,85,124,211
24848949,156,155,119,193,85,127,211
24853987,154,156,117,194,85,124,211
24859005,155,158,117,191,85,124,212
24864023,156,158,117,192,84,123,212
24869041,152,156,116,191,85,125,211
24874082,156,155,117,191,84,127,213
24879100,155,155,117,189,86,123,215
24884120,156,161,117,195,84,124,212
24889138,155,160,117,192,84,123,214
24894156,155,158,118,192,83,123,213
24899175,155,157,116,196,84,123,214
24904196,155,156,118,196,84,123,212
24909214,155,155,118,193,83,123,214
24914232,156,154,117,196,85,123,214
24919252,156,153,116,198,82,123,216
24924216,155,152,117,195,85,123,214
24929234,154,155,117,195,85,124,214
24934253,154,155,117,194,85,122,214
24939274,156,152,117,203,85,122,215
24944295,156,153,119,204,84,122,214
24949313,156,152,117,203,85,122,214
24954333,155,152,118,200,85,124,215
24959354,156,164,117,200,86,121,217
24964374,156,182,118,199,84,123,213
24969392,156,187,117,198,85,122,211
24974414,155,183,117,197,84,123,215
24979435,154,181,117,196,84,123,212
24984456,156,176,117,196,84,123,213
24989475,156,173,117,196,85,124,212
24994435,155,168,119,197,85,123,212
24999450,154,168,117,199,85,123,213
25004465,154,173,118,198,84,121,213
25009481,155,169,117,196,83,122,213
25014500,156,168,117,196,85,124,213
25019519,155,168,117,201,86,122,213
25024537,155,170,117,200,84,124,213
25029555,154,169,117,198,82,122,213
25034574,155,168,117,197,85,122,213
25039593,155,165,117,195,86,123,213
25044613,157,165,117,196,85,123,214
25049632,155,166,117,195,85,126,214
25054651,155,168,117,195,85,125,213
25059670,155,166,117,193,83,125,214
25064527,155,164,117,192,85,123,215
25069461,156,162,118,188,85,124,215
25074395,156,161,117,193,85,123,215
25079330,155,160,117,192,85,126,209
25084264,154,159,121,192,85,124,209
25089199,156,157,115,191,85,124,210
25094133,156,168,118,193,84,124,210
25099068,155,167,117,192,85,124,210
25104002,155,165,118,189,85,122,211
25108937,155,164,117,194,86,125,211
25113871,154,163,117,192,85,123,212
25118805,155,163,118,193,84,126,211
25123739,154,168,117,196,84,123,211
25128674,155,170,119,195,87,125,212
25133667,158,170,118,197,84,130,213
25138688,154,167,117,196,84,129,213
25143707,153,165,116,195,85,128,213
25148726,154,163,117,195,85,128,213
25153744,153,162,117,194,82,128,211
25158765,153,161,117,194,84,126,204
25163814,154,160,117,193,84,126,203
25168896,154,158,117,192,84,125,204
25173950,156,158,117,192,85,124,207
25178983,152,166,117,191,85,124,205
25184002,155,167,120,191,86,124,207
25189021,156,164,118,190,87,124,208
25194037,155,162,119,190,86,125,208
25199064,156,168,119,190,88,124,210
25203911,155,175,118,197,85,124,209
25209030,155,173,118,195,87,124,209
25214131,155,170,119,195,87,125,210
25219245,155,168,119,195,85,126,211
25224359,155,168,118,193,85,125,210
25229461,155,167,118,196,85,125,211
25234562,155,168,117,193,85,123,211
25239694,156,168,117,194,85,124,212
25244796,156,164,117,192,86,124,212
25249898,157,163,117,191,85,124,212
25255000,155,162,118,191,86,126,213
25260116,157,163,117,195,85,125,213
25265219,154,172,117,193,85,124,213
25270321,157,171,118,196,83,126,213
25274531,156,175,117,197,86,124,212
25279665,155,172,117,196,86,123,214
25284801,155,170,117,196,85,124,213
25289934,155,169,115,197,85,124,214
25295068,155,166,118,196,85,124,214
25300203,156,164,117,196,85,123,214
25305354,156,163,118,196,86,125,214
25310496,157,161,117,195,85,126,215
25315609,155,160,116,193,85,128,215
25320746,155,158,117,195,84,127,214
25325882,155,160,117,193,86,126,214
25331015,157,167,117,192,85,126,213
25336150,156,170,117,193,86,126,215
25341207,156,186,117,194,85,124,213
25346343,156,200,117,195,84,125,213
25351477,154,223,118,194,85,125,213
25356613,155,215,117,193,85,123,213
25361749,156,208,117,193,84,124,213
25366886,155,200,117,197,84,124,213
25372021,155,195,117,198,85,124,214
25377157,156,189,118,198,84,120,215
25382293,156,186,117,197,85,124,214
25387430,154,181,117,201,85,124,213
25392566,155,178,117,198,85,124,214
25397703,156,174,117,198,84,124,213
25402839,156,171,119,201,84,124,212
25407975,156,168,117,201,86,125,212
25413055,154,167,117,200,85,124,213
25418173,156,163,114,199,83,123,214
25423299,155,163,117,198,87,124,214
25428416,156,165,117,197,85,123,215
25433534,156,186,115,193,85,124,214
25438668,155,180,117,199,84,124,214
25443785,155,180,117,197,84,126,214
25448902,156,177,120,195,83,124,215
25454020,156,173,118,194,85,124,214
25459137,156,169,117,193,85,124,215
25464254,156,168,119,194,85,123,215
25469372,155,166,117,193,85,123,214
25474498,156,163,116,194,87,123,214
25479615,156,162,117,197,84,124,215
25484608,156,161,117,199,86,123,213
25489725,156,161,117,199,85,122,214
25494842,154,159,118,198,85,122,214
25499960,155,158,118,197,85,123,214
25505077,155,157,118,196,86,123,214
25510195,156,158,118,195,85,122,215
25515312,156,168,118,193,85,123,214
25520430,156,163,118,196,84,122,214
25525547,155,160,118,197,85,123,215
25530665,154,160,118,196,86,122,215
25535782,156,158,117,197,85,122,214
25540899,156,158,119,198,85,121,214
25546016,155,158,117,196,86,122,214
25551134,155,158,116,195,83,121,215
25556124,155,166,117,193,84,123,215
25561236,156,164,117,192,85,123,214
25566347,155,161,117,193,85,123,216
25571459,155,161,118,194,84,123,215
25576571,156,161,118,197,85,122,214
25581682,155,160,118,196,81,122,216
25586794,155,165,117,196,85,123,215
25591906,155,164,117,197,85,123,215
25597017,157,165,118,196,86,123,213
25602129,155,172,119,197,85,122,214
25607240,155,172,117,197,84,123,215
25612353,156,169,117,195,84,122,215
25617465,155,166,117,194,85,120,216
25622577,154,166,116,196,86,125,215
25627458,156,163,117,195,86,125,215
25632487,155,161,117,194,86,124,218
25637513,154,159,116,193,85,124,215
25642540,158,158,117,193,85,123,215
25647568,155,156,117,191,84,124,214
25658320,154,165,117,191,84,122,214
25663252,155,164,117,192,86,122,215
25668219,155,163,117,190,84,123,215
25673188,155,164,117,190,85,123,215
25678156,157,163,117,191,85,123,215
25683126,155,162,119,192,85,124,216
25688095,158,159,115,190,85,124,215
25693065,155,158,120,190,84,124,215
25698041,157,158,117,188,84,122,216
25702545,156,156,118,188,84,123,214
25707197,154,155,117,188,87,126,215
25711865,156,156,117,188,85,122,215
25716522,153,168,117,188,84,123,215
25721179,155,167,116,187,86,122,215
25725836,155,175,117,188,85,121,215
25730493,155,170,117,188,85,123,215
25735150,153,168,118,189,85,123,216
25739807,156,169,117,190,85,122,215
25744465,156,167,117,198,85,124,215
25749123,156,175,117,197,85,123,216
25753781,155,172,117,197,84,121,216
25758439,154,170,119,194,84,123,214
25763079,155,169,119,196,85,124,215
25767817,156,166,118,195,85,123,213
25772554,155,170,121,194,84,123,210
25777292,154,166,118,193,85,124,213
25782030,153,165,118,192,84,123,215
25786767,155,164,118,193,84,124,212
25791505,155,164,115,193,85,123,212
25796242,155,169,118,191,85,122,215
25800999,154,196,120,192,84,122,216
25805736,156,193,118,190,84,124,213
25810474,155,188,118,188,85,123,213
25815212,155,184,118,189,84,125,213
25819951,156,182,118,190,85,122,213
25824689,155,178,119,190,84,122,212
25829378,156,173,118,189,86,124,213
25834101,157,174,118,188,85,126,213
25838822,157,169,118,192,87,123,214
25843544,156,167,118,190,85,123,214
25848267,156,164,118,189,85,125,214
25852991,156,163,118,189,85,122,214
25857713,156,162,118,188,84,122,214
25862435,155,160,118,188,84,122,214
25867160,156,159,117,188,85,122,216
25871883,156,165,120,189,85,123,214
25876605,155,162,117,191,85,124,214
25881328,156,163,118,191,85,125,215
25886053,157,173,117,191,84,125,215
25890776,159,171,118,193,85,125,213
25895372,155,169,119,192,85,126,214
25900095,155,167,119,192,86,127,215
25904819,156,165,119,193,85,123,214
25909542,156,164,118,194,85,123,215
25914265,156,162,118,195,85,123,218
25918989,154,161,118,194,86,124,215
25923713,156,159,117,194,86,126,214
25928436,155,158,118,193,84,124,214
25933160,156,156,117,192,85,124,215
25937884,156,155,117,193,85,123,215
25942607,155,155,118,192,81,124,214
25947331,155,155,118,189,84,123,215
25952055,156,164,118,190,86,122,213
25956778,155,166,117,190,85,123,211
25961381,156,170,119,193,86,123,213
25966091,156,173,119,193,87,122,214
25970801,155,171,119,197,88,122,213
25975512,155,169,119,195,87,122,214
25980222,155,167,121,196,88,123,214
25984932,155,165,118,194,87,123,214
25989643,155,163,119,195,87,123,214
25994353,155,162,117,195,87,125,215
25999064,155,160,118,193,86,124,215
26003774,155,162,118,192,84,124,214
26008485,155,158,117,191,87,124,215
26013195,155,156,117,191,86,123,214
26017906,156,155,118,190,86,124,212
26022616,155,158,117,192,84,124,212
26027160,156,163,117,190,86,124,213
26031870,156,164,118,189,85,123,212
26036580,155,162,118,187,85,125,212
26041291,154,160,118,189,88,124,212
26046001,154,159,117,192,87,125,213
26050712,157,162,118,187,86,123,213
26055422,156,161,120,190,86,123,213
26060133,155,161,117,189,86,124,212
26064843,156,160,118,188,85,123,212
26069563,155,159,118,188,85,126,212
26074274,156,157,117,188,84,123,212
26078984,154,157,117,187,85,123,213
26083694,156,156,116,187,85,120,212
26088404,156,162,118,185,86,121,214
26092952,155,163,117,189,84,124,212
26097654,154,160,117,188,85,124,213
26102355,155,158,117,188,85,123,212
26107057,155,159,117,189,84,123,211
26111758,156,157,118,189,84,121,212
26116460,155,155,118,189,85,121,212
26121161,155,156,121,193,86,123,212
26125863,155,156,120,197,87,123,213
26130564,156,163,120,196,84,123,212
26135265,154,165,119,195,86,122,213
26139966,155,181,119,194,84,122,214
26144668,153,183,121,193,85,123,213
26149369,155,179,120,195,85,123,213
26153974,154,179,119,195,84,122,214
26158593,155,180,120,193,84,123,213
26163212,156,181,119,193,85,122,213
26167833,154,176,120,192,85,123,213
26172453,155,175,119,193,85,121,213
26177073,154,171,118,195,85,122,214
26181692,155,169,118,195,84,122,214
26186314,156,168,118,194,85,123,214
26190934,155,166,118,194,84,121,214
26195553,155,164,118,196,82,119,214
26200174,155,163,117,192,85,122,215
26204795,155,164,118,192,85,122,214
26209415,154,163,118,192,86,121,215
26214035,155,165,118,190,85,121,211
26218835,155,169,118,190,85,122,214
26223599,156,185,119,191,85,120,215
26228372,154,182,118,192,84,122,215
26233146,155,181,118,189,86,123,216
26237920,155,188,119,191,85,122,215
26242695,155,189,118,189,85,123,215
26247468,154,182,118,190,85,123,213
26252243,155,181,118,188,86,123,214
26257018,155,178,115,189,86,124,213
26261792,155,174,117,189,85,123,214
26266568,156,172,118,188,87,123,214
26271345,155,172,117,188,86,123,210
26276122,155,183,117,188,85,124,214
26280900,155,183,118,187,85,124,215
26285590,155,179,117,187,84,123,214
26290448,154,177,118,187,84,123,214
26295307,154,174,118,188,86,123,214
26300166,155,181,117,187,85,125,214
26305024,155,178,118,190,85,125,214
26309883,155,175,118,189,83,123,215
26314742,156,172,117,190,83,124,214
26319601,156,170,117,188,84,124,215
26324460,156,168,117,189,86,123,211
26329318,156,167,120,189,83,123,215
26334177,156,166,118,188,84,123,215
26339036,158,172,117,190,86,123,214
26343894,155,170,119,189,84,123,215
26348753,155,177,115,193,84,122,216
26353493,155,179,117,195,84,124,217
26358336,158,181,118,195,85,120,216
26363178,156,183,117,195,85,122,215
26368021,155,181,117,195,86,122,215
26372863,155,178,118,195,85,123,215
26377705,155,180,118,193,85,123,211
26382548,156,182,117,193,84,124,214
26387391,156,189,117,192,86,122,215
26392233,156,185,117,191,84,123,218
26397081,158,181,117,189,84,122,214
26401923,157,178,116,190,85,123,213
26406766,154,175,117,189,85,122,214
26411616,155,172,118,189,84,123,214
26416458,155,171,118,188,82,122,214
26421115,154,170,118,189,85,122,214
26425956,155,173,117,188,84,124,214
26430832,155,170,117,187,87,124,212
26435674,154,168,117,188,85,123,213
26440516,156,167,117,190,85,123,215
26445357,156,165,118,189,85,122,213
26450206,157,162,117,186,84,123,212
26455048,154,168,117,191,85,123,212
26459899,157,178,118,191,86,122,213
26464753,156,187,117,188,85,122,213
26469601,156,188,115,190,84,122,214
26474506,156,184,117,189,83,123,213
26479348,156,184,118,189,85,123,213
26484190,154,180,118,193,85,124,216
26488854,156,179,118,189,85,123,215
26493680,157,179,118,189,85,124,215
26498506,156,173,117,188,86,123,215
26503332,154,171,117,190,86,123,214
26508158,155,169,117,193,84,124,217
26512984,154,167,117,194,85,124,217
26517823,155,164,120,194,84,123,214
26522649,156,163,117,196,86,122,214
26527475,156,161,117,194,86,122,213
26532310,154,161,119,195,84,123,215
26537137,155,160,120,197,84,121,215
26541966,155,159,118,196,84,123,214
26546792,154,157,117,194,85,123,215
26551603,153,169,118,195,84,121,214
26556430,155,171,118,197,84,123,215
26561256,154,172,118,195,85,122,214
26566083,155,176,118,195,85,123,214
26570912,157,172,116,193,85,123,215
26575739,156,169,118,190,83,124,215
26580566,155,167,118,192,84,125,216
26585394,156,165,118,194,85,125,215
26590223,155,163,118,197,83,122,214
26595050,156,162,118,196,85,124,214
26599877,156,161,117,196,83,125,214
26604705,156,160,117,195,85,124,214
26609534,156,157,118,194,84,123,213
26614361,154,156,117,193,84,123,214
26619190,154,157,118,199,85,124,214
26624010,155,155,118,209,83,123,213
26628830,154,157,118,207,84,123,213
26633649,155,167,119,204,85,123,214
26638469,155,173,121,203,85,123,214
26643288,155,189,120,202,85,123,214
26648108,154,185,120,200,82,124,215
26652928,154,182,120,199,84,123,214
26657748,155,179,121,197,83,123,214
26662567,154,176,118,197,85,124,214
26667387,156,178,119,196,85,123,210
26672206,158,177,121,194,85,123,217
26677026,155,172,118,195,86,123,215
26681859,156,171,118,195,87,123,214
26686512,158,169,118,194,86,124,215
26691249,157,167,119,197,85,123,215
26695985,155,164,118,195,81,123,214
26700722,156,165,119,195,85,123,212
26705458,156,161,118,194,84,124,215
26710194,155,163,118,193,86,123,214
26714930,155,165,117,195,84,124,215
26719667,155,181,118,192,84,121,216
26724403,154,177,118,193,85,123,218
26729140,156,178,118,191,85,122,215
26733876,156,188,119,190,85,121,216
26738612,154,191,118,191,85,122,216
26743349,155,185,118,191,87,122,215
26748085,156,180,116,192,86,125,215
26752929,156,178,117,193,87,122,215
26757787,155,177,117,196,86,121,216
26762646,152,172,117,194,87,124,215
26767504,155,170,116,195,86,125,215
26772363,155,168,116,195,87,123,214
26777221,155,166,116,196,84,123,214
26782079,154,164,120,195,85,125,213
26786938,155,166,119,194,86,123,213
26791797,154,163,119,194,86,123,214
26796655,154,169,118,193,86,123,214
26801514,155,168,118,193,85,124,214
26806372,155,169,118,191,85,122,214
26811231,155,170,118,191,86,123,214
26816089,152,166,118,190,85,123,213
26820822,156,166,118,192,84,124,214
26825761,155,164,119,190,84,123,214
26830700,154,163,118,195,85,123,215
26835640,156,162,118,194,86,123,214
26840579,154,160,118,194,85,123,214
26845520,156,159,118,194,86,123,213
26850459,154,157,118,194,85,125,215
26855399,156,165,118,194,82,126,215
26860340,155,168,119,193,84,124,214
26865280,155,166,118,193,85,124,215
26870220,154,165,118,192,85,124,215
26875159,153,165,119,191,84,124,215
26880102,155,163,117,190,87,124,214
26890712,147,160,120,193,85,122,218
26895451,155,163,117,192,83,123,215
26900324,155,162,117,192,86,123,214
26905199,155,161,117,192,86,123,215
26910074,156,160,116,194,87,123,215
26914949,156,158,113,192,85,122,214
26919825,156,156,118,191,84,123,214
26924700,156,155,117,191,85,123,215
26929604,155,155,117,191,85,123,215
26934528,156,154,116,190,84,123,216
26939452,155,161,119,185,86,123,215
26944376,153,171,119,188,84,123,214
26949300,155,193,119,188,85,122,215
26954224,155,188,119,188,84,123,215
26959130,155,184,120,189,86,123,216
26964054,156,181,119,189,85,122,216
26968978,158,179,119,188,84,123,216
26973902,156,173,119,188,84,123,216
26978826,156,171,121,188,84,123,215
26983751,157,168,117,189,84,123,216
26988675,157,166,117,187,84,121,216
26993599,156,164,118,187,83,124,216
26998523,156,162,117,187,84,125,216
27003447,155,162,117,188,84,122,215
27008371,159,161,117,186,84,122,216
27013296,156,167,118,185,86,123,216
27018220,156,168,117,186,85,124,216
27023171,157,166,118,186,85,122,215
27028087,157,181,118,185,86,124,215
27033011,155,178,117,185,86,125,215
27037935,155,180,117,185,86,124,215
27042860,156,177,119,187,84,120,215
27047785,157,172,118,185,85,123,217
27052710,156,170,118,185,86,123,215
27057634,156,166,117,185,85,122,213
27062560,155,165,117,187,86,124,215
27067486,156,164,117,184,84,122,215
27072412,154,165,117,185,85,123,215
27077337,157,168,117,184,85,124,215
27082264,155,169,117,184,86,120,215
27087190,156,165,117,185,84,123,216
27092115,155,172,117,183,86,120,215
27096982,158,170,117,184,84,123,215
27101910,155,168,117,184,83,122,216
27106836,154,167,117,183,85,123,215
27111761,156,164,117,187,84,123,215
27116688,155,163,116,186,86,122,218
27121615,156,162,117,189,84,123,215
27126542,156,160,116,187,84,122,216
27131467,155,158,116,186,84,122,216
27136394,155,156,117,186,84,122,216
27141322,155,156,116,186,83,123,214
27146248,155,160,117,185,85,122,216
27151174,155,162,116,185,85,123,216
27156101,155,171,116,188,86,122,216
27161029,155,179,117,184,84,123,214
27165915,158,178,113,185,84,123,215
27170843,155,172,117,186,85,123,215
27175770,157,174,115,188,85,123,215
27180698,156,168,117,187,86,122,215
27185626,152,166,116,187,85,123,214
27190553,155,175,117,187,85,123,215
27195499,154,178,117,188,85,123,215
27200447,154,175,118,188,84,122,215
27205374,154,171,117,190,84,123,215
27210303,155,170,116,190,85,123,216
27215231,155,167,116,189,85,123,216
27220159,155,165,118,188,85,122,216
27225088,156,164,117,189,86,122,216
27230016,154,164,118,187,87,123,214
27234737,155,166,117,187,84,123,216
27239584,155,165,117,185,84,122,214
27244431,153,167,118,185,84,123,215
27249278,154,178,118,186,85,122,216
27254125,154,177,118,186,85,121,216
27258972,156,177,118,186,85,123,216
27263819,158,184,117,184,85,123,215
27268666,155,185,118,185,85,122,216
27273513,155,181,118,185,84,120,215
27278360,156,178,118,185,85,122,216
27283208,155,176,118,185,85,122,216
27288055,155,172,119,186,85,123,217
27292902,154,170,119,185,84,125,216
27297749,153,167,119,188,84,123,215
27306082,153,171,118,187,85,124,216
27310755,155,178,118,186,87,124,215
27315391,156,182,119,188,90,124,218
27320015,156,178,118,198,88,124,215
27324639,155,183,118,197,89,125,215
27329262,156,181,118,195,88,124,215
27333886,156,181,117,195,93,124,215
27338509,155,189,118,194,96,123,214
27343133,155,184,118,193,99,126,214
27347756,156,183,119,195,97,122,215
27352380,156,180,120,191,96,122,216
27357003,157,177,119,190,96,122,216
27361627,154,177,118,189,92,123,215
27366233,154,174,118,189,92,123,216
27370928,156,172,118,188,91,123,216
27375622,155,169,121,190,91,124,216
27380317,155,173,121,195,103,125,215
27385031,156,174,120,195,126,125,216
27389735,156,181,119,196,146,124,216
27394440,155,184,119,196,138,126,215
27399144,156,184,119,195,135,126,215
27403848,155,181,119,194,133,126,215
27408551,155,179,119,192,125,123,215
27413257,155,177,119,191,123,124,215
27417961,155,174,120,190,119,124,215
27422664,155,172,119,190,114,123,215
27427369,155,175,120,189,114,125,217
27431993,157,170,119,188,109,123,215
27436722,157,168,119,187,106,121,215
27441450,156,166,118,187,104,124,216
27446181,156,165,119,189,99,124,215
27450912,157,171,121,187,102,124,215
27455641,156,185,122,187,101,124,215
27460371,155,182,120,187,99,123,216
27465102,157,180,121,187,111,124,215
27469834,156,179,120,189,112,124,216
27474563,156,172,119,188,115,124,214
27479294,158,172,119,186,121,123,216
27484025,157,168,119,187,116,122,215
27488756,156,170,119,187,154,124,216
27493486,158,169,120,186,165,125,217
27498015,157,172,118,186,158,125,216
27502746,156,183,119,186,152,123,215
27507476,155,192,119,187,163,124,215
27512208,159,187,120,186,165,122,214
27516942,155,183,120,186,160,124,216
27521677,156,180,120,188,161,123,215
27526410,156,184,119,189,166,124,215
27531144,156,181,119,194,169,124,215
27535878,156,178,119,192,160,124,215
27540612,156,173,119,194,153,124,214
27545346,155,171,118,194,145,124,216
27550080,158,168,118,192,158,123,215
27554814,156,166,118,191,163,126,214
27559430,156,170,119,191,169,127,215
27564145,156,168,117,191,165,127,211
27568861,161,169,118,191,156,128,215
27573576,163,168,118,188,159,131,216
27578291,161,169,122,188,171,131,216
27583006,162,169,146,190,177,130,215
27587722,162,166,169,193,177,132,215
27592437,161,167,177,193,199,135,215
27597153,160,167,170,191,243,134,215
27601868,157,168,166,191,229,132,216
27606584,160,167,163,191,215,130,215
27611299,158,167,159,192,202,130,214
27616014,160,168,153,191,191,130,215
27620730,160,164,150,193,181,129,215
27624548,158,162,147,190,171,129,216
27629264,158,161,144,190,164,127,215
27633979,157,158,147,188,158,128,216
27638694,157,162,145,185,185,127,216
27643409,158,162,148,190,225,129,215
27648124,158,172,144,189,236,128,215
27652839,157,172,145,188,247,128,216
27657555,156,180,160,188,250,129,215
27662307,157,189,179,188,270,129,215
27667028,157,182,187,190,289,132,216
27671743,158,181,181,200,268,124,215
27676458,156,179,174,193,250,126,216
27681173,156,175,169,195,232,127,218
27685790,156,176,165,197,238,125,215
27690499,158,179,158,195,247,127,215
27695208,157,175,152,195,258,127,215
27699925,157,174,151,194,244,128,215
27704651,159,182,148,194,258,128,216
27709374,159,180,146,193,249,126,215
27714097,158,183,141,194,262,126,215
27718825,160,182,139,194,276,126,215
27723533,157,184,139,193,256,125,215
27728242,159,186,136,191,237,126,215
27732951,157,184,134,191,230,125,214
27737675,160,180,166,190,256,125,215
27742385,157,181,182,189,266,124,218
27746994,158,186,201,189,262,125,215
27751623,156,182,194,188,243,124,216
27756250,157,180,204,188,243,124,215
27760877,164,175,217,188,305,130,219
27765504,186,181,217,187,351,128,216
27770133,191,180,214,187,355,128,214
27774760,187,185,204,186,365,129,215
27779387,183,181,195,186,341,131,215
27784016,183,177,188,188,338,127,216
27788645,179,174,180,192,328,133,216
27793272,175,171,174,191,321,129,214
27797905,175,172,168,190,298,128,215
27802535,173,187,163,191,286,127,215
27807164,172,205,155,186,289,128,217
27811855,172,210,181,188,290,127,215
27816578,175,214,198,189,329,131,215
27821312,172,223,213,188,389,129,215
27826045,170,218,231,187,389,128,215
27830777,169,215,246,188,377,129,213
27835512,168,209,235,189,355,127,215
27840246,167,207,224,187,344,126,217
27844979,166,203,212,188,334,129,215
27849712,165,199,203,189,328,130,216
27854446,165,195,194,190,358,129,215
27859180,164,190,187,189,447,132,216
27863914,163,191,180,188,559,133,215
27868648,162,189,178,189,530,131,215
27873356,163,188,171,188,491,130,215
27878171,163,187,167,188,523,131,216
27882986,161,184,167,188,536,129,215
27887801,164,192,163,188,509,131,216
27892617,172,192,157,188,528,131,216
27897432,173,195,232,188,514,129,216
27902247,179,201,256,187,537,131,215
27907062,180,232,279,188,507,132,215
27911878,181,238,263,194,470,131,216
27916693,179,267,259,194,433,130,216
27921508,176,260,244,193,425,130,215
27926324,175,246,231,193,392,129,216
27931139,172,236,218,193,419,129,216
27935954,169,227,207,194,392,127,214
27940689,170,216,199,195,400,129,215
27945530,168,211,190,194,389,129,216
27950370,168,205,183,192,393,129,215
27955211,168,203,177,192,369,128,215
27960051,169,208,170,195,366,126,215
27964892,167,204,173,193,482,128,216
27969732,167,198,194,192,583,127,216
27974572,165,196,214,191,568,128,216
27979412,163,201,215,192,603,133,217
27984252,164,197,246,189,595,136,216
27989093,163,226,294,189,548,135,216
27993933,163,230,300,188,529,134,216
27998773,163,277,281,191,567,135,217
28003542,162,275,264,192,562,134,216
28008381,161,262,248,193,589,132,216
28013221,161,251,234,191,547,131,217
28018061,160,240,223,190,502,130,216
28022885,161,231,211,191,488,131,215
28027725,159,223,202,190,457,132,215
28032565,157,218,194,189,421,132,219
28037405,169,225,214,189,391,131,216
28042245,169,241,203,191,374,131,216
28047084,168,236,199,199,350,133,216
28051924,167,230,214,200,325,130,216
28056764,165,229,222,198,304,129,216
28061604,165,235,231,196,325,130,215
28066443,163,235,244,194,357,130,217
28071120,162,226,236,194,393,128,216
28075942,161,218,225,193,407,130,216
28080763,162,223,214,191,475,134,216
28085584,162,253,214,192,547,135,215
28090405,160,298,209,191,526,136,216
28095228,161,283,199,189,482,132,216
28100049,160,269,190,193,462,132,217
28104870,159,262,183,193,461,133,216
28109692,161,259,204,193,432,129,216
28120237,161,248,237,191,365,130,216
28124947,161,241,224,193,360,129,215
28129704,164,245,224,191,335,129,216
28134462,170,239,248,192,314,129,212
28139162,169,235,275,192,298,127,213
28143921,167,235,269,193,329,132,216
28148680,166,227,253,196,368,134,217
28153439,166,218,242,194,413,136,217
28158204,164,223,231,194,422,132,216
28163011,166,228,219,193,388,130,215
28167818,164,219,210,192,367,131,216
28172626,164,214,202,193,338,129,216
28177433,170,211,248,193,326,128,216
28182240,170,218,291,195,305,130,216
28187047,170,238,297,198,284,128,216
28191855,168,256,279,200,279,128,216
28196662,167,297,263,202,315,131,214
28201470,168,289,247,200,355,136,218
28206156,173,276,234,200,359,137,216
28210958,174,263,221,199,331,136,214
28215760,169,254,223,197,335,137,216
28220562,169,244,230,198,332,134,216
28225364,167,236,248,202,314,134,216
28230166,166,248,242,200,314,134,216
28234968,167,237,229,201,375,133,215
28239770,166,241,228,198,372,132,214
28244572,164,253,252,204,410,130,216
28249391,167,244,247,216,394,131,216
28254215,164,267,260,219,376,130,217
28259017,164,267,245,216,352,133,215
28263836,161,256,231,213,344,132,217
28268490,162,244,220,224,333,137,216
28273211,161,235,210,233,370,138,216
28277933,160,226,200,230,358,139,216
28282654,159,218,192,226,374,138,216
28287375,159,228,206,222,392,135,218
28292098,165,247,224,218,373,136,215
28296820,180,276,216,214,381,137,215
28301541,178,270,237,214,374,138,216
28306263,177,260,244,210,346,137,216
28310986,175,255,234,209,320,134,216
28315708,173,256,244,210,301,134,217
28320430,170,246,251,217,295,133,216
28325152,172,241,261,212,290,133,215
28329876,168,231,248,226,273,132,215
28334679,167,223,235,223,339,135,216
28339532,168,219,225,219,363,142,216
28344387,167,272,214,215,444,141,215
28349242,165,323,206,215,516,139,215
28354094,166,336,201,209,486,137,216
28358948,164,318,188,212,445,138,216
28363803,164,358,220,211,433,138,215
28368657,168,385,258,209,439,138,216
28373509,185,391,249,207,414,135,216
28378364,182,367,237,213,385,133,215
28383219,189,363,262,220,355,131,215
28388074,212,387,287,229,405,132,216
28392927,218,372,282,235,458,130,216
28397744,220,355,272,246,473,131,215
28402680,215,338,257,244,479,132,216
28407615,209,321,241,243,451,132,216
28412550,203,348,229,238,498,139,213
28417485,198,393,224,231,557,138,215
28422421,194,382,214,226,552,139,216
28427357,189,356,211,221,502,135,215
28432293,186,334,202,218,537,135,215
28437229,185,315,194,215,556,134,216
28442165,180,298,185,212,522,133,216
28447101,178,282,178,210,504,133,216
28452038,180,274,184,213,479,132,216
28456974,195,323,245,210,444,131,216
28461910,261,346,298,206,421,132,215
28466688,285,345,322,214,402,131,215
28471649,271,376,301,243,397,131,216
28476610,268,379,285,247,365,131,216
28481571,262,390,269,240,341,129,216
28486532,250,366,252,234,313,127,216
28491494,244,343,238,229,290,132,215
28496455,231,324,225,226,281,135,215
28501416,225,305,214,225,310,134,216
28506393,217,286,203,227,347,139,215
28511354,210,273,194,223,336,137,216
28516315,204,262,186,227,339,136,215
28521289,202,263,182,251,412,138,215
28526250,199,252,197,284,411,136,214
28531149,196,250,224,274,391,135,216
28536110,200,247,244,264,374,134,215
28541071,199,240,269,257,345,132,215
28546031,196,231,266,256,318,131,215
28550992,194,222,250,251,295,131,215
28555952,188,214,235,249,278,130,216
28560913,186,208,221,244,303,139,216
28565874,184,200,212,237,419,145,215
28570834,179,195,201,232,527,146,216
28575795,178,190,192,241,533,144,216
28580756,176,186,184,262,521,145,217
28585716,172,182,177,257,477,144,216
28590677,173,243,176,257,446,142,216
28595638,178,304,177,269,435,135,214
28600415,204,325,211,275,432,138,214
28605357,198,319,213,279,416,136,213
28610299,201,304,218,282,382,135,213
28615240,197,300,257,279,351,134,213
28620182,193,300,277,270,323,132,214
28625125,191,299,290,262,300,131,214
28630066,185,283,271,251,328,131,212
28635008,181,270,253,248,372,138,215
28639950,182,257,240,240,393,136,215
28644894,178,246,227,235,412,137,215
28649836,175,234,214,230,396,139,215
28654778,172,226,204,227,376,143,214
28659722,185,228,194,225,394,143,214
28664588,189,249,190,222,455,140,215
28669529,209,277,184,218,486,140,216
28674471,204,282,185,216,446,137,215
28679416,200,275,182,214,415,136,215
28684361,195,270,179,212,386,134,215
28689302,191,260,171,210,359,135,215
28694246,186,247,166,213,333,133,215
28699190,183,237,160,220,310,131,215
28704135,180,228,156,220,330,136,215
28709077,179,215,151,218,317,135,215
28714022,175,212,147,229,339,138,216
28718967,175,204,145,249,373,141,219
28723911,171,206,195,262,481,138,219
28728854,181,215,234,267,481,139,222
28733638,180,235,282,261,451,136,218
28738577,177,308,270,255,434,135,219
28743516,178,356,255,249,407,134,219
28748456,199,370,243,245,376,132,218
28753398,194,344,231,243,349,132,218
28758341,189,325,219,236,322,131,219
28763283,186,307,211,232,297,131,217
28768224,183,291,200,246,310,133,218
28773167,179,278,190,255,318,135,220
28778110,178,263,182,255,299,134,231
28783052,175,250,175,251,281,133,230
28787995,173,240,169,244,308,139,231
28792937,170,230,165,237,350,150,229
28797720,176,223,162,234,419,149,227
28802580,177,220,216,232,414,148,227
28807441,179,229,269,233,389,145,227
28812301,197,238,317,239,361,142,225
28817161,211,264,307,239,337,141,225
28822022,204,275,284,234,313,138,224
28826882,199,295,269,233,305,137,224
28831742,195,281,255,231,282,135,222
28836602,191,267,240,233,274,135,221
28841463,188,255,227,241,430,143,221
28846323,183,243,215,239,550,146,221
28851183,180,233,203,235,575,146,220
28856043,180,225,195,231,541,147,219
28860904,177,218,186,233,599,153,218
28864786,176,212,181,236,597,152,219
28869722,181,217,215,236,612,154,218
28874659,174,212,242,237,560,151,218
28879595,179,222,282,234,522,148,218
28884536,179,236,287,230,493,145,217
28889473,177,251,295,229,453,144,217
28894448,174,252,289,229,424,141,217
28899382,174,278,272,225,457,141,217
28904321,170,308,255,223,489,143,217
28909281,169,290,240,220,477,145,218
28914218,169,277,228,225,474,144,218
28919155,167,267,216,223,454,142,225
28924113,165,250,205,219,436,143,233
28928966,164,243,198,218,403,140,234
28933986,164,235,187,236,409,139,232
28939006,163,252,181,261,413,137,230
28944026,165,242,206,274,385,137,225
28949051,176,232,211,267,357,134,229
28954071,177,238,227,263,352,132,227
28959117,177,233,241,258,327,135,227
28964137,174,260,241,263,328,131,222
28969180,173,261,238,256,373,134,226
28974200,172,292,227,258,390,134,225
28979240,168,276,215,258,397,132,225
28984275,167,261,204,255,376,131,229
28989309,166,251,194,247,510,141,227
28994321,166,257,186,241,601,144,226
28999367,165,279,178,241,623,151,225
29004401,163,330,176,245,582,149,225
29009463,166,319,179,249,599,151,224
29014508,164,332,194,255,600,147,224
29019555,161,328,216,248,601,145,223
29024600,162,320,235,243,575,143,223
29029650,163,310,233,237,523,141,221
29034696,168,295,231,235,487,138,221
29039744,165,279,218,232,486,138,221
29044789,164,266,208,229,467,136,221
29049833,163,254,198,225,440,135,221
29054881,161,244,189,248,447,135,220
29059929,162,232,183,288,514,145,218
29064831,161,228,196,281,532,143,224
29069877,162,227,205,273,574,142,226
29074924,161,228,203,266,553,139,227
29079971,159,290,221,262,529,139,223
29085016,166,290,236,265,488,138,223
29090063,174,298,241,265,474,136,223
29095111,174,303,240,262,434,135,223
29100158,171,326,227,256,422,134,223
29105204,170,362,215,256,399,138,221
29110251,173,343,204,259,381,137,219
29115298,171,323,195,258,383,134,220
29120346,169,305,186,250,364,132,220
29125393,168,287,178,247,429,134,220
29130441,166,273,171,245,461,131,220
29135470,165,260,165,237,449,132,219
29140498,165,249,161,228,472,135,219
29145526,165,259,186,229,502,134,217
29150554,165,295,200,225,488,136,219
29155582,167,341,228,221,466,134,217
29160611,167,338,235,228,437,133,218
29165639,165,318,241,251,412,132,218
29170676,168,302,246,267,383,132,217
29175705,169,296,237,261,409,131,217
29180733,168,279,227,256,433,134,218
29185761,167,264,215,248,430,134,219
29190790,166,252,204,242,424,134,228
29195818,165,241,197,238,444,133,233
29200710,163,232,187,240,433,133,232
29205738,162,228,179,234,495,138,231
29210766,163,244,174,231,571,140,230
29215794,162,242,168,227,673,141,229
29220823,161,232,164,233,622,139,228
29225851,162,234,193,242,566,135,227
29230879,161,251,226,256,517,134,226
29235907,162,330,253,285,480,137,226
29240935,169,404,264,286,512,136,226
29245963,193,415,269,280,539,135,225
29250991,186,394,260,269,573,135,225
29256019,185,371,244,264,532,133,223
29261047,181,348,231,264,486,134,220
29266036,177,326,218,255,522,132,223
29271058,175,306,208,253,567,135,222
29276080,174,292,197,247,586,138,218
29281102,170,276,190,245,584,142,221
29286125,170,275,183,246,587,144,221
29291147,169,264,174,240,644,144,218
29296179,169,255,170,243,601,142,218
29301201,168,266,167,241,549,140,218
29306224,169,269,197,235,571,140,217
29311246,167,334,206,231,580,140,216
29316268,182,321,238,225,554,138,217
29321290,181,303,231,222,505,137,218
29326313,177,289,217,221,470,137,218
29331335,178,278,208,220,463,135,219
29336132,174,263,198,220,438,136,221
29341071,173,251,188,219,425,134,218
29346008,169,239,180,220,404,138,218
29350962,169,230,177,222,556,151,219
29355900,168,226,172,219,667,150,218
29360841,166,229,168,217,783,163,218
29365778,167,226,167,216,753,163,218
29370716,165,217,181,215,703,158,218
29375656,165,264,192,212,642,154,218
29386325,166,344,230,213,533,149,218
29391165,162,324,244,215,490,145,218
29396042,161,304,231,221,495,146,217
29400920,161,287,219,229,461,146,220
29405981,160,275,208,233,433,143,220
29410946,159,262,199,238,413,141,219
29415910,160,249,189,250,410,141,219
29420873,158,239,183,269,441,142,217
29425843,158,231,177,270,527,145,218
29430850,158,234,189,265,523,146,218
29435858,158,226,183,260,477,144,218
29440866,158,226,179,247,446,141,217
29445873,157,226,172,242,431,141,218
29450880,158,243,244,237,395,139,218
29455888,159,252,300,232,362,137,218
29460895,159,268,320,244,375,136,217
29465903,157,256,295,251,409,141,216
29470911,157,243,276,251,406,140,224
29475764,156,234,262,263,411,139,224
29480854,156,227,244,278,451,138,225
29485944,156,228,231,277,486,137,222
29491034,155,223,218,273,499,141,222
29496124,162,215,208,271,477,138,221
29501215,160,216,200,266,452,137,222
29506341,185,232,191,261,411,135,221
29511431,182,251,191,254,378,135,220
29516522,182,246,188,255,348,133,220
29521612,177,231,180,249,321,134,220
29526719,175,227,172,247,335,132,220
29531809,174,218,167,262,369,135,219
29536900,171,213,164,258,405,139,228
29541969,169,206,157,278,422,139,230
29547092,168,199,152,300,396,140,230
29552216,167,206,177,295,511,149,230
29557340,167,238,174,297,623,147,233
29562464,165,297,222,290,603,147,262
29567589,166,305,214,284,557,145,263
29572713,165,300,203,285,522,143,260
29577836,164,296,195,292,480,140,256
29582960,164,288,186,297,438,140,249
29588087,162,271,180,333,415,137,250
29593210,162,269,173,351,457,139,247
29598334,165,257,168,351,480,138,246
29603460,168,245,164,365,457,136,244
29608586,166,235,159,394,491,148,241
29613500,167,226,153,381,469,148,240
29618624,165,217,149,358,496,149,239
29623750,163,210,146,340,459,150,236
29628876,165,203,146,327,450,151,234
29633999,162,225,154,313,443,150,233
29639124,161,247,162,300,450,148,232
29644250,163,301,179,288,419,144,231
29649376,161,292,208,283,389,141,229
29654500,161,276,202,277,499,147,228
29659625,159,262,192,283,550,151,227
29664751,161,251,184,313,618,151,227
29669877,160,240,177,319,627,152,242
29675001,159,231,170,312,622,157,239
29680055,158,224,164,302,664,155,236
29685162,159,230,156,307,626,151,235
29690270,157,220,155,319,568,151,233
29695377,158,213,150,304,605,148,233
29700484,178,209,147,292,598,147,231
29705591,190,215,144,282,583,145,231
29710698,202,215,145,271,528,141,229
29715806,197,220,146,263,482,138,229
29720914,197,230,185,255,440,137,227
29726028,193,227,200,249,419,136,229
29731136,187,217,217,243,471,139,235
29736244,185,211,207,237,466,138,240
29741367,180,203,198,231,440,138,244
29746474,177,197,187,236,407,138,287
29751396,177,191,180,251,414,135,289
29756510,173,187,172,264,448,133,284
29761618,171,185,167,264,425,132,287
29766726,170,213,174,273,392,130,289
29771841,168,231,188,283,370,128,286
29776948,172,244,211,275,345,131,284
29782060,186,237,203,267,320,133,278
29787167,189,246,197,261,297,129,268
29792276,186,252,190,252,315,133,260
29797384,184,247,181,246,340,135,256
29802491,180,236,175,240,350,133,253
29807599,179,228,169,234,355,136,247
29812724,175,218,163,228,390,136,247
29817795,172,212,159,225,384,140,245
29822897,171,204,153,219,363,137,240
29827999,168,198,150,215,335,137,239
29833100,168,193,176,215,330,136,245
29838202,167,196,197,219,303,135,242
29843304,166,210,202,225,280,133,240
29848406,166,227,200,228,273,134,239
29853508,164,256,191,236,267,133,236
29858609,167,254,185,243,329,139,236
29863711,165,243,178,240,371,141,233
29868813,163,236,170,251,397,144,234
29873914,163,228,165,247,421,145,234
29879016,161,223,159,241,433,147,232
29884118,162,215,155,241,422,155,234
29888950,161,228,154,234,387,149,231
29893968,162,242,151,231,358,150,231
29898986,160,251,151,227,347,144,239
29904004,158,296,193,222,327,143,238
29909022,161,282,217,219,301,140,236
29914042,160,275,238,217,281,138,234
29919059,160,265,238,218,313,140,233
29924078,160,277,232,220,318,137,232
29929096,159,297,219,231,298,136,231
29934116,160,281,209,231,297,140,230
29939134,158,269,198,235,344,146,230
29944151,159,258,189,233,358,147,228
29949171,158,248,181,235,418,145,227
29953776,157,239,175,242,403,144,228
29958420,158,230,168,254,391,144,228
29963079,156,221,164,264,364,138,226
29967739,157,214,160,259,340,137,225
29972400,157,219,156,256,317,138,225
29977060,173,219,180,250,310,136,224
29981720,173,242,197,246,297,134,224
29986381,181,251,214,239,277,132,223
29991042,179,262,207,233,257,131,221
29995702,177,283,241,230,280,132,222
30000362,175,271,256,226,286,137,219
30005023,174,260,260,222,300,146,221
30009684,171,250,246,220,314,144,225
30014358,168,237,233,224,322,148,222
30018807,170,230,221,227,309,145,225
30023550,167,224,211,229,315,143,226
30028293,167,214,202,228,305,140,227
30033037,169,211,193,226,291,139,227
30037783,167,215,185,221,272,138,225
30042529,174,215,179,221,254,136,225
30047276,173,208,216,219,240,136,227
30052022,173,240,221,217,260,135,224
30056769,170,270,241,213,264,134,224
30061516,172,292,245,221,250,133,223
30066263,168,279,234,231,275,135,222
30071010,169,265,232,234,443,146,222
30075756,167,253,221,233,572,154,226
30080384,170,243,215,232,642,168,225
30085114,165,232,205,239,589,163,224
30089845,165,225,195,247,557,161,225
30094575,164,216,187,242,581,161,224
30099305,163,211,179,237,602,160,223
30104035,162,203,173,235,641,157,221
30108766,162,199,167,237,587,155,222
30113496,162,206,167,234,569,154,222
30118227,161,215,180,248,529,153,221
30122957,161,228,199,245,493,149,221
30127688,182,230,217,243,460,150,221
30132418,181,273,240,237,445,145,220
30137149,175,261,259,238,425,147,220
30141879,175,253,265,236,401,144,218
30145698,176,246,275,246,385,144,220
30150428,172,237,260,247,364,141,219
30155158,170,234,244,248,337,140,219
30159888,167,226,231,242,314,136,218
30164618,172,217,220,235,308,138,217
30169348,170,231,209,228,291,136,218
30174078,170,234,200,228,299,136,217
30178808,176,263,195,225,285,136,217
30183566,173,251,188,240,267,134,216
30188296,175,241,182,248,247,134,216
30193026,170,233,175,246,291,136,215
30197756,168,226,169,249,312,135,215
30202486,167,218,165,251,315,134,214
30207101,166,212,182,250,311,134,215
30211824,167,230,186,258,305,134,215
30216540,171,231,194,268,313,132,216
30221256,169,230,187,261,327,131,216
30225972,168,231,205,254,342,131,215
30230699,167,229,212,246,345,130,216
30235490,167,233,231,241,352,129,216
30240218,164,227,220,240,337,130,216
30244933,165,228,209,248,326,129,217
30249649,164,219,201,250,302,127,214
30254365,165,213,192,247,283,128,214
30259080,163,205,184,246,265,125,215
30263796,162,200,177,243,268,127,214
30268512,161,195,171,237,346,126,215
30273228,162,220,179,239,395,130,214
30277945,178,264,185,251,406,129,215
30282660,183,305,209,250,436,129,214
30287376,180,293,221,246,457,128,214
30292093,195,281,211,241,430,128,216
30296810,196,286,201,238,426,128,215
30301532,193,280,213,238,428,135,215
30306247,188,283,228,245,417,137,225
30310966,184,269,232,242,433,136,226
30315682,183,258,219,237,454,136,225
30320398,179,246,210,238,470,136,225
30325115,177,236,199,232,475,135,224
30329833,175,228,193,229,457,135,224
30334430,172,222,199,230,429,133,224
30339137,172,233,222,237,402,135,222
30343846,170,264,262,237,377,131,221
30348556,178,287,254,235,347,130,221
30353264,205,311,252,232,319,130,221
30357972,205,296,238,231,317,129,220
30362682,199,306,227,229,310,129,219
30367392,197,290,215,224,295,126,220
30372100,193,278,205,230,289,127,223
30376809,189,262,196,237,272,127,219
30381519,185,251,188,243,353,134,219
30386228,182,241,181,238,424,141,218
30390938,182,233,184,235,511,140,218
30395548,178,232,196,236,475,139,217
30400175,182,242,220,240,492,138,218
30404801,181,232,236,245,468,137,218
30409428,184,231,259,240,431,134,217
30414054,197,225,248,236,397,133,217
30418698,193,252,235,241,367,131,218
30423324,190,256,233,244,368,131,218
30427951,185,259,223,243,357,130,217
30432577,186,256,216,240,346,129,217
30437204,184,244,206,234,325,128,219
30441830,182,236,196,232,313,128,216
30446457,180,243,188,229,364,132,217
30451084,178,258,182,225,367,132,217
30455710,176,255,177,225,394,135,218
30460404,174,245,172,231,425,144,217
30465159,173,237,179,234,483,144,216
30469925,169,226,183,230,471,142,216
30474690,169,226,198,229,443,141,218
30479456,167,235,191,234,469,138,217
30484222,169,244,192,238,461,137,216
30488988,172,257,187,253,440,136,216
30493754,184,289,181,251,411,134,216
30498520,187,300,184,246,379,134,217
30503286,186,337,187,242,351,129,217
30508051,186,384,193,237,325,132,216
30512817,181,365,186,233,300,133,216
30517583,179,357,179,228,308,133,216
30522277,178,337,169,225,370,134,216
30527124,174,329,187,221,363,137,215
30531971,173,329,202,221,372,140,216
30536818,170,311,199,219,393,136,216
30541665,170,294,190,220,438,137,216
30546512,168,282,189,219,429,137,217
30551359,166,284,200,227,409,136,217
30556206,165,286,199,227,424,131,216
30561053,165,302,201,228,413,134,216
30565900,164,292,193,230,380,133,217
30570747,163,285,186,228,359,134,217
30575594,162,282,179,245,331,132,216
30580441,161,279,172,260,380,132,216
30585288,163,277,166,257,415,132,216
30589967,161,274,162,266,426,131,215
30594798,164,262,157,265,429,131,215
30599630,164,264,182,275,439,132,216
30604461,164,258,197,265,403,131,216
30609292,171,259,214,258,372,132,223
30614124,168,263,207,250,376,132,220
30618956,168,292,198,240,364,133,221
30623787,167,283,190,237,374,132,220
30628618,169,279,183,232,354,132,223
30633452,168,315,201,227,332,129,219
30643955,171,346,229,220,285,126,217
30648697,169,324,216,220,268,130,218
30653463,167,307,205,218,250,128,217
30658214,167,293,196,227,304,131,217
30662982,166,279,185,223,369,139,218
30667750,165,268,180,231,378,138,218
30672519,164,259,208,244,416,138,217
30677287,164,270,224,250,412,136,217
30682083,162,260,233,244,422,136,218
30686899,162,278,221,248,413,136,217
30691715,162,292,212,244,389,135,217
30696532,168,305,205,241,357,134,215
30701348,168,307,221,234,332,134,217
30706165,166,327,232,229,311,131,217
30710981,171,316,262,225,295,132,216
30715797,169,338,251,220,279,132,216
30720614,167,354,245,217,260,129,217
30725277,166,390,245,213,245,129,217
30730079,167,373,250,210,279,131,217
30734881,165,353,238,209,340,138,217
30739682,164,332,226,205,404,136,217
30744484,164,313,214,203,380,139,217
30749286,163,296,203,201,376,141,216
30754088,162,282,195,208,380,142,217
30758890,162,268,189,248,357,140,217
30763692,164,257,200,261,373,138,217
30768494,164,246,194,256,373,133,217
30773297,166,264,200,255,392,136,216
30778108,166,276,194,258,419,134,217
30782914,185,275,205,252,386,132,217
30787698,184,283,209,246,365,131,217
30792500,181,272,227,242,339,132,216
30797303,179,267,245,237,331,131,216
30802105,177,255,233,231,307,131,216
30806908,174,251,225,228,287,129,216
30811711,173,243,214,225,305,131,216
30816514,170,231,202,230,313,128,216
30821317,169,220,194,226,322,130,216
30826119,169,216,185,223,299,129,216
30830923,167,210,182,230,289,127,217
30835727,166,203,182,236,359,134,217
30840529,168,246,178,232,397,134,217
30845332,178,279,215,234,432,134,217
30850136,174,393,211,229,393,133,215
30854786,173,372,212,235,381,132,216
30859581,175,368,204,238,349,130,215
30864378,170,358,212,240,387,130,216
30869176,176,349,235,249,414,134,216
30873973,174,335,230,251,388,136,214
30878769,172,315,218,247,454,137,215
30883567,171,298,210,247,427,137,215
30888365,169,284,199,242,408,141,216
30893162,167,270,196,234,467,147,216
30897958,166,267,197,232,459,148,215
30902756,164,259,191,228,465,146,215
30907554,166,257,186,225,438,145,216
30912351,164,251,192,225,402,141,216
30917049,164,268,196,229,377,140,217
30921765,162,303,220,227,364,139,216
30926482,161,299,219,222,339,139,215
30931199,164,338,260,223,336,137,216
30935915,162,339,245,219,322,136,216
30940632,164,324,236,216,313,135,216
30945348,161,321,227,216,312,134,216
30950066,162,307,217,218,316,134,216
30954783,162,293,207,232,349,133,217
30959500,161,284,198,238,366,133,216
30964218,159,269,187,230,392,137,215
30968935,158,259,185,236,458,140,216
30973653,160,249,179,252,469,146,217
30978370,160,258,176,248,445,144,215
30983184,158,259,181,244,415,140,216
30988050,160,270,183,250,387,139,215
30992899,159,260,233,245,364,139,216
30997749,169,247,281,244,372,136,215
31002598,166,256,309,243,358,134,215
31007447,169,253,290,237,338,134,216
31012297,164,252,273,232,311,133,216
31017146,164,253,269,227,290,132,215
31021996,162,266,251,225,296,131,216
31026845,163,261,241,221,304,132,216
31031694,160,258,229,219,295,133,216
31036544,161,271,218,217,308,133,216
31041393,160,298,208,211,306,132,216
31046182,159,284,208,214,296,132,216
31051112,161,296,211,215,303,131,216
31056041,160,329,217,221,344,132,216
31060970,158,385,211,234,402,133,216
31065899,166,369,225,242,374,134,217
31070828,165,345,231,260,374,139,215
31075758,163,332,271,259,348,140,216
31080687,164,344,287,252,341,139,216
31085617,164,330,272,249,330,135,216
31090546,163,311,258,243,327,134,215
31095476,162,303,241,238,328,135,214
31100405,167,292,234,234,355,141,217
31105334,169,283,220,227,408,140,215
31110264,169,281,212,225,388,138,215
31115093,167,272,201,219,367,135,216
31120023,166,273,193,215,390,136,216
31124952,165,265,195,213,391,136,217
31129882,164,279,186,212,428,137,216
31134812,163,314,197,209,420,137,216
31139742,162,298,194,209,404,137,217
31144673,159,284,196,223,423,140,217
31149602,162,269,212,246,432,139,216
31154532,160,259,223,247,414,139,216
31159463,162,250,239,244,393,138,216
31164394,166,263,264,241,360,136,215
31169323,166,262,261,247,333,135,215
31174253,174,274,249,241,323,136,216
31179114,188,316,241,235,372,140,216
31184044,189,299,226,231,378,136,217
31188973,184,287,217,226,387,135,215
31193904,182,312,208,225,376,134,216
31198835,180,334,198,221,400,139,216
31203765,176,328,193,219,382,138,216
31208695,174,309,183,218,357,138,215
31213626,173,293,176,216,343,137,216
31218558,170,276,186,258,340,136,216
31223488,169,265,198,312,345,135,216
31228419,168,252,217,306,335,129,216
31233351,168,244,214,310,335,132,216
31238286,167,240,210,308,348,133,216
31243216,167,229,208,315,362,130,215
31248037,169,248,216,300,380,131,215
31252969,173,283,234,291,355,131,216
31257901,174,290,231,280,369,129,216
31262833,172,292,218,271,347,130,215
31267768,172,305,208,264,320,128,215
31272704,169,289,199,256,299,128,216
31277640,169,274,189,247,287,128,216
31282575,169,262,182,244,344,132,216
31287511,166,261,201,243,372,137,215
31292447,165,261,213,260,415,144,215
31297383,163,270,218,271,529,148,215
31302318,163,257,207,277,511,155,216
31307254,162,249,201,293,470,154,216
31312118,162,282,194,297,488,154,212
31317053,163,297,212,314,633,168,216
31321995,167,309,213,328,809,171,216
31326930,167,293,212,331,803,175,214
31331866,165,294,207,320,736,171,216
31336801,165,309,215,307,700,166,216
31341737,167,320,213,297,680,162,215
31346672,165,302,202,286,633,157,216
31351608,164,299,198,275,578,154,215
31356543,164,286,189,271,551,155,215
31361479,162,272,181,269,687,167,217
31366414,163,259,197,268,722,173,216
31371350,162,247,214,271,844,179,215
31376285,162,239,214,267,831,181,215
31380337,160,231,205,269,765,177,216
31385272,163,233,206,280,782,176,216
31390207,163,239,197,289,727,172,215
31395143,168,241,200,314,686,168,215
31400087,169,236,194,338,623,163,215
31405061,173,243,188,328,574,158,216
31409996,188,279,182,316,567,156,216
31414951,215,298,229,303,631,158,215
31419886,214,340,262,301,659,153,216
31424839,209,324,312,306,633,151,217
31429802,202,306,294,293,592,151,216
31434767,199,289,276,282,719,156,215
31439727,193,275,259,275,848,155,215
31444508,189,262,244,266,874,163,214
31449361,186,250,232,264,803,159,216
31454215,183,237,221,277,747,156,215
31459069,179,230,209,290,728,152,216
31463923,178,221,203,307,669,151,215
31468776,182,215,191,301,610,149,215
31473630,193,213,184,297,569,145,216
31478517,192,208,177,293,523,142,215
31483418,187,210,170,288,480,140,216
31488271,185,208,168,281,451,139,215
31493125,183,225,161,271,488,142,217
31497996,188,252,193,262,508,145,216
31502849,188,248,204,253,487,142,216
31511274,180,237,193,244,544,145,215
31515951,182,234,185,236,546,145,217
31520556,177,241,204,241,537,142,216
31525184,175,235,214,245,522,140,215
31529812,174,228,222,245,527,140,218
31534443,171,219,212,246,494,141,215
31539071,170,214,204,264,534,142,216
31543699,169,214,196,273,539,141,215
31548328,167,208,194,265,536,140,218
31552959,167,212,189,280,505,137,215
31557587,171,215,186,282,467,136,215
31562215,171,209,179,282,434,134,216
31566846,168,218,173,274,400,133,216
31571476,170,267,184,268,393,133,215
31576006,168,323,203,261,438,138,215
31580716,166,310,199,256,415,140,214
31585427,169,296,191,250,385,139,216
31590138,167,290,184,245,357,137,215
31594847,166,286,178,238,419,138,215
31599559,164,282,171,242,406,139,215
31604270,163,270,166,244,376,137,215
31608981,163,258,161,239,408,140,212
31613691,162,249,156,245,459,153,212
31618402,161,241,153,252,485,154,215
31623113,161,244,181,246,526,161,215
31627825,160,239,194,252,494,158,215
31632536,161,233,230,253,454,154,215
31637239,160,251,219,254,429,153,216
31641976,164,278,209,251,396,149,215
31646713,163,302,228,245,378,146,215
31651450,163,340,230,239,350,145,215
31656186,162,335,230,234,326,143,215
31660923,163,315,217,231,303,145,215
31665660,161,299,208,224,293,148,216
31670397,159,285,198,223,283,146,215
31675134,160,276,189,220,278,144,216
31679870,159,265,185,222,338,143,215
31684607,159,258,179,222,377,141,216
31689344,160,258,176,229,382,143,215
31694081,164,248,173,242,390,141,216
31698817,165,240,171,239,406,138,216
31703412,165,235,172,233,389,139,215
31708148,167,244,198,231,378,137,216
31712884,173,235,210,226,368,136,215
31717620,172,227,227,225,358,134,215
31722357,170,217,222,230,358,136,216
31727093,169,231,237,236,401,139,215
31731829,169,251,226,244,415,142,216
31736566,169,248,213,239,437,140,216
31741302,167,242,203,236,428,138,215
31746039,165,246,195,233,476,144,215
31750775,169,257,188,229,499,146,215
31755511,169,268,181,229,516,147,215
31760247,170,260,175,227,487,144,214
31764929,169,251,169,225,481,141,215
31769646,167,241,163,224,463,139,216
31774363,168,246,159,219,425,138,215
31779081,166,246,157,219,418,137,216
31783797,165,256,157,220,470,138,214
31788514,166,249,181,221,513,140,216
31793231,163,244,199,225,551,139,215
31797948,162,240,210,221,516,137,215
31802666,163,231,225,216,473,136,215
31807383,162,250,233,221,437,136,215
31812100,161,265,229,221,418,136,215
31816817,162,281,218,220,519,148,215
31821534,166,272,212,218,520,150,215
31826251,167,262,202,225,577,149,217
31830829,167,251,202,228,591,150,215
31835547,171,252,196,228,645,147,214
31840265,167,250,192,231,635,150,216
31844981,169,264,186,236,590,146,215
31849698,168,258,179,237,538,142,215
31854418,166,248,173,234,502,142,215
31859135,165,238,170,236,469,138,216
31863852,164,229,192,232,436,139,215
31868570,163,221,214,234,407,137,216
31879012,162,210,202,234,348,134,215
31883617,159,248,195,230,509,146,215
31888270,161,307,187,225,619,160,216
31892923,162,317,182,224,741,175,215
31897537,161,307,176,230,817,185,215
31902186,164,296,170,229,755,179,216
31906835,167,282,193,236,718,175,216
31911485,167,271,232,277,787,187,216
31916140,166,260,240,271,749,189,216
31920838,167,251,235,264,757,181,215
31925536,168,247,224,281,716,176,216
31930233,168,237,213,309,684,166,216
31934932,166,228,203,335,642,166,216
31939629,166,220,195,326,678,171,216
31944327,165,216,206,313,692,166,216
31949024,164,220,215,303,692,165,217
31953722,162,218,220,293,632,160,217
31958421,162,244,211,287,581,156,217
31962897,161,286,201,280,541,154,217
31967515,160,316,193,273,502,152,216
31972132,167,315,185,264,508,150,216
31976750,165,298,180,256,537,153,216
31981367,165,289,176,246,568,153,217
31985985,164,277,171,247,544,151,216
31990602,159,271,167,247,507,152,216
31995220,162,263,164,252,587,157,216
31999837,161,252,161,258,623,158,216
32004460,162,240,158,267,682,171,216
32009078,160,232,152,289,636,168,216
32013704,160,224,149,291,586,165,216
32018333,159,215,146,293,545,161,215
32023080,161,211,171,284,523,157,216
32027791,160,219,202,278,491,154,215
32032514,163,232,222,275,582,158,215
32037237,178,269,212,271,563,165,216
32041960,175,264,203,263,648,165,216
32046684,174,256,194,256,649,169,216
32051406,172,245,186,249,593,165,216
32056129,175,246,179,242,585,162,216
32060852,174,239,172,236,574,166,216
32065577,172,241,167,243,554,164,216
32070299,169,232,162,252,559,163,216
32075022,168,224,156,258,552,160,215
32079746,167,215,153,277,579,164,215
32084471,164,210,149,286,636,168,216
32089018,164,203,147,290,638,169,217
32093821,164,203,149,308,676,166,216
32098626,164,207,157,298,715,163,216
32103432,164,205,166,290,657,158,217
32108234,166,200,177,283,606,153,216
32113038,162,219,169,274,567,152,216
32117843,164,236,163,264,529,149,216
32122648,161,254,161,257,488,148,215
32127451,161,250,184,250,445,146,215
32132256,158,244,195,243,471,149,215
32137061,159,234,210,239,528,157,215
32141866,160,226,200,235,627,154,216
32146670,161,218,190,241,607,159,215
32151455,159,211,184,258,659,160,216
32156286,158,204,177,255,688,160,216
32161116,159,200,170,260,710,156,216
32165947,167,220,167,268,658,154,216
32170778,169,276,162,277,607,150,215
32175608,201,281,186,272,554,146,215
32180438,196,267,203,263,514,146,216
32185270,192,256,194,256,537,146,215
32190101,187,246,185,263,543,152,215
32194932,185,236,179,271,582,148,212
32199764,183,227,171,263,580,149,216
32204595,179,218,166,255,537,145,215
32209427,179,211,160,246,571,156,215
32214258,173,205,157,248,581,166,216
32218888,176,199,152,268,580,162,215
32223719,171,193,149,264,647,165,215
32228550,170,234,147,264,668,167,216
32233382,170,295,163,266,626,164,215
32238213,170,293,180,265,586,160,215
32243053,168,282,208,257,551,156,217
32247884,166,269,199,255,534,155,215
32252715,165,257,191,250,488,151,215
32257557,165,247,182,249,449,148,216
32262393,163,237,176,243,409,146,215
32267224,163,228,169,243,379,144,215
32272055,163,220,164,269,396,145,215
32276903,162,212,159,300,474,163,216
32281674,160,206,154,289,517,165,215
32286486,161,200,150,279,701,173,215
32291297,160,195,146,272,676,173,214
32296109,159,190,162,264,634,168,215
32300921,160,187,173,261,615,164,215
32305733,159,192,192,253,593,162,216
32310544,157,194,193,249,558,158,215
32315356,157,197,189,263,509,155,216
32320168,158,217,190,291,467,148,216
32324979,158,224,188,289,429,150,215
32329791,157,216,180,310,395,147,215
32334603,157,209,174,326,366,145,215
32339414,156,202,168,331,403,150,215
32344226,158,194,162,330,422,163,214
32348860,155,192,157,350,495,169,216
32353671,156,186,153,332,475,166,215
32358483,157,179,150,321,467,167,215
32363312,155,186,195,307,437,159,214
32368123,187,205,226,297,401,159,216
32372950,219,205,251,287,376,155,216
32377761,231,203,239,276,358,154,216
32382572,225,198,228,267,330,149,215
32387384,217,209,217,260,305,147,215
32392198,210,227,207,261,291,145,216
32397009,204,263,202,276,281,144,215
32401820,200,251,191,281,278,146,215
32406633,195,242,187,273,296,145,215
32411386,193,232,177,265,337,142,215
32416192,187,223,171,259,348,139,216
32420997,185,215,166,254,322,138,215
32425805,181,208,161,255,296,136,215
32430613,180,201,155,262,284,135,215
32435419,175,211,156,255,268,134,215
32440226,183,253,162,250,249,132,216
32445034,184,308,161,246,233,132,216
32449842,181,302,156,243,219,133,215
32454648,178,294,153,238,213,137,212
32459456,180,281,175,241,213,135,214
32464264,178,267,197,236,206,134,215
32469072,177,257,193,239,212,133,215
32473879,174,247,185,238,228,134,214
32478424,173,245,178,234,267,133,216
32483151,171,234,172,233,266,132,216
32487877,170,226,166,240,303,133,219
32492604,169,218,161,234,278,131,216
32497334,167,245,156,232,260,129,215
32502063,166,267,177,227,248,129,216
32506792,165,307,174,230,235,129,214
32511521,165,302,191,229,221,129,216
32516250,161,300,183,225,205,128,216
32520980,167,299,185,224,201,127,216
32525709,165,302,206,222,189,131,216
32530438,166,291,229,225,179,128,215
32535168,168,284,220,229,168,128,216
32540041,168,273,210,232,161,129,216
32544937,168,261,199,244,152,128,216
32549798,167,248,188,241,146,127,215
32554659,165,238,182,236,139,127,216
32559534,164,229,176,231,136,131,215
32564396,162,220,168,226,129,127,215
32569257,162,214,164,223,124,127,216
32574119,162,211,177,220,121,127,216
32578981,160,212,195,218,117,125,212
32583842,165,236,208,215,113,125,215
32588703,165,230,212,214,110,127,215
32593565,170,222,227,212,108,125,213
32598426,174,231,245,208,110,123,216
32603288,174,223,232,210,108,124,216
32607340,172,228,223,213,106,124,216
32612296,171,224,214,214,106,124,215
32617239,169,225,203,212,104,124,214
32622181,167,216,193,211,100,123,215
32627124,166,210,184,213,101,124,215
32632089,165,202,177,225,99,124,215
32637041,164,197,170,230,107,126,215
32642002,164,192,165,227,104,124,216
32646994,162,190,165,223,103,125,217
32651967,164,200,162,219,101,126,215
32656910,166,226,177,217,100,128,215
32661867,170,218,187,213,99,127,215
32666809,170,212,204,216,99,133,215
32671670,170,210,200,225,99,131,215
32676654,168,217,190,222,97,130,218
32681622,166,243,182,219,103,129,215
32686616,165,244,175,216,120,129,214
32691584,165,237,169,213,128,129,215
32696552,166,229,166,213,129,126,215
32701536,163,219,163,207,135,127,216
32706504,164,216,157,205,130,127,214
32711498,164,204,158,201,127,126,215
32716466,162,201,155,201,123,125,215
32721433,162,218,164,200,118,129,216
32726401,175,219,176,199,116,126,215
32731393,178,256,172,198,112,126,216
32736361,176,259,173,201,110,124,217
32741128,175,259,184,198,107,127,215
32746095,172,249,192,196,104,126,216
32751062,169,249,184,195,103,125,213
32756030,169,241,177,194,100,126,215
32761000,168,232,170,193,99,125,216
32765968,165,230,165,193,98,124,215
32770947,164,225,162,192,95,124,215
32775917,165,218,157,191,94,124,212
32780887,164,222,155,189,94,124,212
32785854,165,232,176,185,92,124,211
32790822,171,277,193,189,92,125,208
32795793,169,308,201,188,93,125,205
32800763,169,292,192,188,91,123,202
32805676,167,282,183,188,91,122,197
32810625,167,270,177,188,91,121,194
32815576,166,261,170,186,90,121,195
32820528,165,249,165,186,89,127,196
32825476,164,243,160,186,88,125,197
32830427,164,236,154,185,87,125,198
32835378,163,235,173,188,87,127,200
32840329,162,231,195,184,87,126,201
32845278,166,257,193,185,88,127,202
32850229,177,295,198,185,87,124,204
32855180,186,293,190,185,87,125,201
32860131,182,297,182,184,87,126,204
32865082,180,298,176,184,87,124,206
32870033,182,290,169,185,86,123,207
32874905,178,275,162,184,85,123,206
32879856,176,261,160,185,86,124,207
32884806,173,249,156,186,85,123,208
32889757,171,246,153,186,86,124,207
32894707,176,249,154,186,87,123,210
32899658,185,258,170,185,85,123,210
32904609,182,252,191,185,86,124,210
32909560,181,273,225,184,86,124,213
32914532,179,305,238,185,87,124,210
32919483,178,330,244,185,85,124,211
32924434,177,314,233,185,84,123,212
32929384,173,308,221,185,89,123,211
32934335,171,293,211,185,85,122,211
32939286,170,279,201,188,86,122,211
32944137,168,268,193,187,84,123,212
32949082,172,266,197,186,86,123,213
32954027,182,276,188,187,85,121,211
32958971,179,264,191,189,84,122,214
32963916,181,261,217,187,86,123,212
32968861,182,268,211,187,84,122,213
32973805,183,257,201,187,86,123,213
32978750,184,289,193,187,85,123,213
32983694,181,312,184,186,84,123,214
32988639,178,332,177,187,86,124,214
32993583,175,312,170,185,85,123,214
32998528,175,295,166,185,86,123,214
33003473,170,280,176,185,86,123,214
33008418,169,273,222,186,87,121,214
33013139,169,278,219,185,86,123,214
33018001,169,286,219,185,85,124,215
33022864,168,275,244,185,85,122,213
33027726,167,264,261,185,86,122,215
33032588,168,275,262,185,84,122,214
33037451,168,274,245,185,85,123,214
33042313,167,261,235,184,85,123,213
33047175,166,282,224,185,86,123,215
33052038,164,299,212,184,84,121,217
33056901,163,292,204,184,85,122,215
33061763,163,280,198,184,86,123,215
33066626,162,272,189,183,85,122,214
33071503,162,261,193,185,85,124,214
33076368,163,253,188,183,82,123,217
33081291,161,246,233,185,85,122,215
33086239,164,243,257,184,84,123,215
33091178,165,235,251,184,85,123,215
33096120,164,232,245,184,84,122,215
33101059,162,230,231,184,85,121,213
33105998,160,231,220,184,85,122,215
33110939,162,224,210,188,84,123,215
33121603,160,280,191,197,85,124,216
33126444,163,302,186,196,84,124,214
33131323,160,307,181,194,84,123,216
33136203,164,326,184,193,85,123,215
33141083,164,308,183,193,87,123,215
33145964,161,293,196,191,85,119,215
33150827,159,278,213,190,86,123,215
33155785,162,265,222,190,86,122,215
33160750,161,257,216,190,86,124,215
33165756,160,255,204,190,86,123,215
33170763,160,252,196,190,85,126,215
33175769,161,242,209,189,85,127,215
33180776,159,242,227,189,86,127,215
33185782,160,276,229,188,85,127,215
33190789,159,305,221,187,86,126,215
33195795,162,318,208,187,86,126,216
33200801,161,311,200,187,83,123,216
33205809,161,313,191,187,84,125,215
33210816,160,302,188,186,84,124,215
33215823,162,292,203,186,84,124,217
33220810,160,290,218,185,85,125,215
33225843,158,281,206,185,87,123,215
33230876,163,280,199,185,85,121,215
33235909,169,282,192,186,85,123,216
33240941,167,315,198,186,84,123,215
33245974,168,333,196,186,85,124,215
33251006,166,329,194,186,85,124,215
33256039,169,354,210,185,84,125,218
33261072,171,384,228,185,85,125,215
33266105,170,361,216,185,84,126,217
33271138,169,342,206,185,83,127,215
33276170,169,324,202,187,85,127,215
33281203,166,306,214,187,85,125,215
33286236,167,301,222,186,87,125,215
33291191,165,295,214,186,84,125,216
33296224,166,284,206,185,88,124,215
33301259,166,271,201,186,86,123,215
33306292,165,277,193,186,87,125,213
33311326,171,290,185,188,87,123,216
33316359,175,300,180,184,85,123,215
33321396,178,294,190,185,87,124,214
33326429,177,331,200,185,87,124,215
33331463,173,370,213,186,86,124,215
33336497,171,351,211,184,87,124,215
33341534,170,329,210,185,85,124,214
33346567,171,313,226,185,86,124,215
33351601,171,302,213,184,86,125,215
33356637,168,294,217,185,86,125,215
33361554,168,292,208,185,87,123,216
33366568,176,296,203,184,86,123,215
33371584,179,283,196,184,87,124,216
33376601,177,276,189,184,86,123,215
33381618,177,290,182,184,86,123,216
33386632,173,310,177,184,87,123,215
33391649,172,336,170,184,86,123,216
33396666,169,365,175,184,86,124,215
33401683,170,345,174,184,85,124,215
33406699,171,325,211,184,83,122,216
33411716,167,309,205,184,86,123,218
33416733,165,296,197,184,85,122,215
33421750,166,292,189,183,85,121,215
33426767,163,291,184,184,85,124,214
33431645,165,296,177,183,82,123,215
33436661,164,286,182,184,86,123,215
33441678,164,294,176,184,85,122,216
33446696,160,286,170,184,83,123,214
33451714,162,306,165,183,85,123,215
33456731,161,338,180,184,84,123,215
33461749,164,373,193,184,85,124,215
33466767,160,348,193,185,85,123,215
33471785,159,328,185,183,85,125,216
33476802,160,310,178,184,84,124,216
33481820,162,295,191,183,83,124,215
33486838,165,288,214,185,85,124,215
33491856,173,297,205,184,84,122,215
33496874,172,304,198,183,84,125,215
33501731,171,296,192,183,82,125,216
33506743,170,284,183,184,85,123,216
33511755,168,285,180,185,85,123,215
33516767,166,270,174,184,83,122,214
33521779,166,257,168,181,86,123,215
33526791,165,293,167,184,84,122,214
33531802,164,328,180,180,86,123,215
33536814,163,352,198,184,85,122,212
33541826,163,373,190,184,85,122,214
33546837,164,419,183,183,84,122,215
33551849,163,454,177,184,85,123,216
33556861,164,435,172,184,85,123,215
33561873,162,413,191,184,84,122,215
33566884,165,429,202,185,84,122,214
33570921,164,423,197,182,84,122,216
33575849,165,400,188,183,85,122,215
33580778,163,379,182,184,85,122,217
33585706,163,364,199,183,86,122,216
33590634,161,353,208,188,85,122,216
33595563,160,381,212,199,84,122,215
33600491,160,409,202,200,83,122,215
33605420,160,398,194,199,86,122,216
33610348,159,378,192,198,84,122,215
33615277,159,355,185,197,82,122,216
33620205,158,346,188,195,85,123,215
33625134,158,327,189,197,84,120,215
33630062,161,324,210,193,83,122,215
33635172,164,320,256,192,84,125,218
33640188,165,302,269,190,85,120,215
33645200,166,293,253,190,85,122,216
33650212,164,289,248,189,85,123,216
33655224,163,278,247,189,85,123,216
33660239,162,264,241,188,84,124,215
33665252,162,321,228,188,85,123,215
33670264,162,369,216,187,84,123,215
33675278,164,395,205,188,85,123,215
33680293,164,384,197,186,86,123,216
33685305,163,362,188,186,83,123,215
33690317,161,339,181,186,85,123,216
33695332,167,329,176,182,83,125,215
33700347,175,311,169,185,84,125,215
33705323,173,296,164,185,84,125,213
33710419,171,282,160,185,85,123,215
33715516,169,272,160,185,84,123,215
33720613,167,278,155,185,85,124,215
33725708,167,265,167,185,84,122,212
33730805,165,299,192,184,88,124,217
33735903,166,346,215,185,83,124,215
33741000,164,343,205,184,84,124,211
33746096,164,327,198,184,85,123,215
33751193,163,320,197,184,83,121,215
33756291,162,359,197,184,83,123,215
33761388,162,351,187,184,85,124,216
33766487,162,329,183,184,84,122,215
33771588,160,311,176,186,84,124,215
33776607,161,343,169,185,84,123,216
33781741,161,374,164,184,84,122,215
33786873,160,386,175,185,83,121,215
33792006,159,364,191,184,84,122,215
33797140,158,344,191,185,84,125,215
33802274,159,323,182,184,85,125,215
33807407,159,305,175,185,85,124,215
33812541,157,347,173,184,85,123,215
33817674,160,407,198,184,83,126,215
33822808,163,398,216,185,85,124,215
33827941,164,397,214,184,84,123,215
33833075,160,382,215,184,84,124,216
33838208,162,361,210,184,84,123,216
33843342,160,339,205,185,82,121,216
33848325,161,331,195,184,85,123,215
33853458,160,338,188,184,85,123,215
33858591,161,320,185,185,84,123,215
33863725,158,308,203,186,85,124,212
33868858,158,292,219,189,85,124,215
33873992,158,290,210,189,80,124,215
33879125,164,297,202,192,84,125,215
33884259,174,305,194,193,83,124,215
33889392,172,333,194,193,84,123,214
33894526,169,314,190,197,84,123,215
33899659,171,295,200,199,84,123,215
33904792,168,284,219,197,83,123,215
33909930,168,270,213,196,83,123,215
33915081,166,258,203,195,86,123,215
33920037,166,246,193,190,83,123,213
33925152,162,237,184,193,83,123,216
33930318,165,230,177,191,83,123,216
33935459,166,226,172,187,84,122,215
33940574,165,218,188,190,83,122,215
33945724,163,211,195,191,84,122,215
33950849,161,211,193,191,85,122,216
33955986,162,225,185,192,83,122,214
33961100,161,252,178,190,84,122,218
33966215,161,263,176,190,84,121,215
33971347,161,305,169,190,84,122,215
33976475,160,289,165,198,84,122,215
33981614,158,280,162,198,83,123,216
33986745,159,265,158,198,83,123,216
33991675,158,256,177,197,81,125,217
33996805,158,247,185,195,85,125,215
34001933,158,243,192,193,84,124,215
34007047,159,234,184,194,84,122,215
34012171,157,225,178,191,81,125,216
34017284,157,218,170,192,85,121,215
34022415,159,210,165,193,85,123,215
34027531,157,204,159,194,87,123,215
34032645,158,199,181,193,86,124,216
34037759,156,206,189,195,86,123,215
34042873,157,200,184,194,89,124,215
34047995,159,193,181,196,86,124,214
34053109,157,190,178,212,85,124,215
34058223,157,238,172,210,85,123,215
34063332,156,268,166,207,84,127,216
34068453,155,281,164,205,85,124,215
34073561,157,268,159,203,85,123,216
34078669,157,257,165,200,82,123,215
34083780,155,246,180,199,86,124,215
34088890,156,237,199,197,86,123,214
34093998,156,227,192,197,86,123,216
34099107,155,224,182,194,85,122,215
34104218,156,218,177,194,87,124,216
34109329,154,212,169,205,83,122,215
34114437,154,212,164,219,86,122,214
34119547,157,209,183,213,85,122,216
34124658,159,225,222,210,83,122,215
34129610,168,229,212,208,84,123,215
34134636,164,276,207,204,85,121,215
34139662,188,350,205,203,85,124,215
34144689,191,331,197,200,85,124,215
34149715,186,316,192,202,86,125,215
34154742,184,323,184,198,84,121,216
34159768,181,318,176,198,84,122,216
34164800,179,309,169,216,84,122,215
34169826,177,295,164,330,85,123,214
34174853,173,277,159,390,84,122,215
34179879,171,263,154,417,84,122,215
34184906,170,251,149,546,85,122,215
34189933,169,245,173,593,84,122,216
34194959,174,253,172,774,83,122,216
34199575,178,270,221,760,84,120,216
34204219,177,268,246,718,84,122,215
34208887,183,268,235,667,84,123,215
34213555,183,283,235,618,85,122,215
34218223,184,296,225,576,84,122,215
34222891,181,283,215,537,84,122,215
34227559,178,272,209,503,85,122,216
34232227,176,267,205,473,84,125,215
34236895,174,256,200,447,86,122,215
34241563,173,244,193,420,84,122,215
34246231,170,235,185,395,86,121,216
34250898,169,227,177,377,84,122,215
34255566,168,227,172,357,84,121,215
34260234,178,244,189,338,84,123,216
34264767,177,270,229,324,82,122,215
34269515,178,317,271,311,83,122,215
34274264,177,371,274,298,84,121,215
34279012,180,362,259,289,86,122,215
34283761,176,354,252,278,84,122,216
34288510,175,338,239,268,84,122,215
34293258,173,327,228,260,84,122,215
34298007,168,311,216,252,84,123,215
34302755,169,296,205,244,84,123,215
34307504,168,281,197,240,84,122,215
34312252,166,267,188,233,84,123,215
34317001,166,256,181,229,84,123,215
34321750,165,247,174,225,84,123,215
34326499,164,238,169,221,85,122,214
34331052,165,240,171,218,85,122,214
34335785,164,232,180,214,84,122,215
34340517,166,242,193,211,84,122,219
34345250,166,268,186,208,84,122,216
34349983,167,309,181,206,83,122,215
34354715,164,301,187,205,85,121,215
34359448,165,287,183,201,83,122,215
34364182,164,285,185,202,84,121,211
34368914,163,271,178,201,85,121,214
34373647,163,263,172,199,86,123,216
34378381,162,263,167,198,87,121,213
34383115,162,256,163,198,83,121,214
34387847,156,249,157,196,85,122,215
34392580,159,242,152,197,85,123,215
34397118,161,235,156,195,83,121,215
34407521,161,220,186,193,84,121,215
34412167,160,215,181,193,83,122,215
34416836,160,210,174,191,83,122,215
34421506,158,204,168,189,84,122,215
34426177,159,217,167,189,84,121,215
34430848,158,223,164,188,83,122,215
34435520,160,248,187,189,85,121,215
34440191,158,306,192,197,84,121,215
34444890,158,291,199,203,84,121,216
34449610,157,279,191,211,84,123,215
34454330,157,268,185,208,84,123,216
34459050,157,259,182,205,84,122,216
34463770,156,251,177,204,83,122,215
34468475,159,242,170,202,84,123,215
34473180,157,232,165,201,85,121,214
34477886,156,226,160,199,84,121,217
34482591,156,217,176,197,83,121,216
34487297,156,212,194,196,84,122,215
34492004,157,214,205,195,84,122,214
34496710,156,217,199,195,84,122,215
34501416,157,212,191,194,84,123,216
34506122,157,207,183,193,85,123,216
34510828,157,248,179,192,84,123,215
34515535,157,292,203,192,85,123,215
34520240,162,322,217,193,84,123,216
34524947,165,307,228,194,84,123,215
34529584,163,293,218,194,83,126,215
34534289,159,278,211,193,84,124,215
34538995,160,272,210,193,85,123,216
34543701,158,259,210,192,83,124,216
34548407,161,250,200,191,85,125,215
34553113,160,243,193,191,84,123,215
34557820,159,241,213,190,84,122,216
34562527,158,238,238,189,85,123,216
34567234,157,229,246,185,85,122,215
34571941,161,225,233,188,83,122,215
34576649,157,215,222,188,85,123,215
34581356,159,218,211,188,85,121,215
34586063,159,243,202,193,84,122,215
34590771,159,271,193,194,87,123,216
34595425,160,268,186,193,84,123,215
34600124,158,258,180,192,84,123,215
34604822,158,246,172,189,85,122,216
34609523,158,238,164,190,84,123,215
34614222,157,234,166,191,84,123,216
34618921,158,225,178,191,84,123,215
34623620,156,220,187,189,84,119,215
34628321,157,221,190,192,83,122,215
34633021,156,232,198,195,84,123,215
34637720,158,241,209,194,85,123,215
34642420,163,233,203,194,85,122,216
34647121,163,227,196,193,84,123,215
34651821,163,232,189,192,83,121,217
34656521,162,233,181,194,83,122,216
34661009,161,272,188,191,84,123,216
34665628,158,293,182,192,84,124,215
34670246,160,320,177,195,83,125,215
34674865,159,307,171,193,84,123,215
34679484,160,291,172,192,84,123,216
34684103,161,279,169,192,85,122,215
34688722,161,268,165,191,81,123,215
34693341,159,258,160,190,84,122,215
34697960,159,247,157,190,84,123,215
34702579,159,238,152,189,86,122,215
34707199,157,234,150,189,83,122,215
34711818,157,237,199,192,85,122,216
34716438,158,229,256,192,84,122,215
34721058,158,220,262,194,84,122,217
34725735,163,218,256,192,85,122,215
34730483,163,215,243,192,84,121,214
34735241,162,210,229,192,85,122,216
34740000,161,236,217,192,84,123,215
34744759,162,268,207,189,85,123,215
34749517,161,295,199,191,83,122,216
34754276,158,280,191,190,83,123,216
34759035,160,267,183,190,83,122,215
34763793,161,256,176,189,83,122,214
34768552,157,245,170,188,85,122,216
