time,EMG1,EMG2,EMG3,EMG4,EMG5,EMG6,EMG7
17964848,202,370,296,262,87,124,229
17965848,201,376,292,266,86,124,229
17966848,199,381,288,268,86,125,228
17967848,199,381,284,265,87,125,228
17968848,198,377,281,268,86,124,228
17969848,197,372,277,267,88,125,228
17970848,196,374,273,264,86,123,228
17971848,196,392,269,266,87,124,227
17972848,196,405,266,265,86,124,227
17973848,194,409,264,263,87,124,227
17974848,194,407,260,263,86,126,225
17975848,193,403,258,263,86,124,227
17976848,193,400,255,263,87,127,226
17977848,191,394,251,262,86,124,228
17978848,193,390,248,261,86,124,227
17979848,190,385,245,259,86,128,228
17980848,190,380,243,261,87,125,227
17981848,190,378,240,260,86,125,231
17982848,189,381,234,259,87,124,227
17983848,189,376,234,258,87,125,227
17984848,189,373,234,256,86,124,227
17985848,187,369,230,255,86,125,228
17986848,187,363,228,253,86,124,227
17987848,186,361,226,252,84,124,227
17988848,186,361,222,250,87,125,227
17989848,182,365,220,249,87,125,227
17990848,184,370,217,249,88,124,227
17991848,184,375,215,247,86,125,228
17992848,184,380,213,246,87,124,227
17993848,183,380,212,243,87,124,226
17994848,184,376,218,243,87,124,228
17995848,182,373,228,242,86,124,227
17996848,181,372,230,239,84,127,227
17997848,181,381,229,240,86,124,226
17998848,178,391,227,242,86,124,228
17999848,179,394,226,243,87,124,228
18000848,180,394,228,242,87,124,227
18001848,179,389,231,243,86,124,226
18002848,178,386,235,244,87,125,227
18003848,178,383,238,245,87,121,227
18004848,178,378,242,245,86,124,227
18005848,178,378,242,244,87,124,226
18006848,177,379,241,243,87,123,227
18007848,177,379,239,243,87,124,227
18008848,178,373,236,240,86,124,227
18009848,176,373,233,240,86,124,226
18010848,175,373,232,240,86,124,226
18011848,175,367,227,240,86,124,227
18012848,175,363,227,240,86,123,226
18013848,174,357,224,240,85,124,226
18014848,174,354,231,241,87,120,226
18015848,174,348,241,244,89,124,225
18016848,173,348,244,245,86,124,227
18017848,174,340,241,246,86,125,227
18018848,174,337,241,246,87,125,227
18019848,171,332,247,244,86,127,228
18020848,172,328,255,246,86,123,226
18021848,176,325,263,250,86,124,227
18022848,171,322,268,257,86,125,227
18023848,173,318,272,262,86,124,226
18024848,170,315,272,265,86,124,227
18025848,171,311,269,264,86,124,226
18026848,172,308,265,264,86,124,226
18027848,171,304,262,261,86,124,226
18028848,171,301,260,264,86,122,226
18029848,170,297,258,265,87,124,226
18030848,170,297,255,264,85,124,227
18031848,170,295,261,265,87,124,226
18032848,174,294,276,267,87,124,226
18033848,170,292,283,268,87,125,224
18034848,170,290,284,266,86,126,226
18035848,170,290,282,265,86,125,225
18036848,170,287,278,264,86,127,225
18037848,170,284,278,263,89,124,226
18038848,173,282,282,262,87,124,226
18039848,172,279,287,261,85,124,226
18040848,167,276,290,257,85,124,225
18041848,169,277,291,257,86,124,226
18042848,168,272,289,257,86,124,226
18043848,168,272,291,257,86,122,225
18044848,168,269,288,257,85,125,226
18045848,169,266,284,257,85,125,225
18046848,168,266,281,256,86,125,227
18047848,167,273,278,255,90,125,228
18048848,167,282,275,253,86,125,225
18049848,167,294,272,252,86,124,225
18050848,168,306,268,252,87,124,226
18051848,168,315,263,252,87,125,225
18052848,163,316,261,252,86,124,225
18053848,166,314,258,251,90,125,225
18054848,167,310,255,254,88,124,225
18055848,166,322,252,250,86,124,225
18056848,167,340,248,249,86,125,225
18057848,166,358,245,247,87,124,225
18058848,166,364,243,246,86,123,225
18059848,167,364,240,247,86,125,225
18060848,165,364,237,248,88,125,224
18061848,164,357,235,246,86,125,224
18062848,165,353,232,245,85,125,224
18063848,165,350,229,245,86,126,224
18064848,165,345,227,244,86,125,225
18065848,165,343,225,245,86,125,220
18066848,164,339,223,248,87,125,226
18067848,165,334,220,248,87,128,225
18068848,165,329,217,246,86,126,226
18069848,165,327,216,248,86,125,225
18070848,165,324,213,255,87,125,225
18071848,164,322,211,258,86,125,225
18072848,164,317,209,258,86,125,225
18073848,164,321,208,256,87,122,225
18074848,164,319,205,254,86,125,226
18075848,163,319,203,252,86,124,225
18076848,163,316,201,251,86,126,225
18077848,163,312,200,251,86,124,225
18078848,164,309,198,253,87,122,225
18079848,164,311,198,256,88,124,225
18080848,163,315,195,263,82,125,225
18081848,164,318,195,267,86,125,225
18082848,163,316,192,269,86,124,223
18083848,163,313,192,275,87,124,225
18084848,163,310,190,279,87,124,225
18085848,160,314,188,283,86,124,226
18086848,163,326,193,284,86,124,222
18087848,163,350,203,283,87,125,224
18088848,163,378,207,280,87,125,224
18089848,163,394,207,278,90,126,224
18090848,163,401,205,277,86,125,224
18091848,163,398,204,276,86,125,225
18092848,164,393,206,275,86,125,225
18093848,165,390,209,274,86,124,224
18094848,165,388,214,276,86,125,224
18095848,165,382,218,279,86,124,224
18096848,164,384,220,279,86,125,225
18097848,165,389,222,280,88,124,224
18098848,165,397,223,282,86,125,224
18099848,165,402,222,284,85,125,224
18100848,162,402,222,284,86,125,223
18101848,164,403,231,281,84,125,224
18102848,166,399,240,280,86,125,225
18103848,163,394,245,279,87,125,225
18104848,167,391,246,278,86,124,224
18105848,166,393,244,276,84,125,224
18106848,167,394,245,273,87,124,225
18107848,166,386,245,273,86,125,224
18108848,166,380,252,271,86,125,222
18109848,166,376,256,273,87,126,223
18110848,165,373,265,273,85,125,224
18111848,165,369,267,271,86,120,225
18112848,166,363,266,269,86,126,224
18113848,166,359,263,267,86,126,224
18114848,163,355,260,268,86,125,224
18115848,167,351,257,269,87,125,224
18116848,165,346,254,273,86,124,224
18117848,165,342,250,278,87,127,223
18118848,165,338,247,274,86,124,227
18119848,164,334,245,276,86,128,224
18120848,165,330,242,283,86,125,224
18121848,165,326,239,287,86,125,223
18122848,164,322,235,281,86,125,224
18123848,164,318,233,282,86,124,224
18124848,163,314,231,280,86,125,223
18125848,164,307,228,279,88,123,223
18126848,164,309,227,277,86,125,223
18127848,165,302,224,276,86,124,224
18128848,162,300,222,274,86,126,224
18129848,163,298,218,273,86,124,222
18130848,164,294,217,270,86,125,223
18131848,164,292,214,268,86,125,224
18132848,163,289,213,266,86,124,224
18133848,164,285,210,265,86,127,223
18134848,163,282,208,264,84,124,223
18135848,163,280,206,262,86,125,224
18136848,163,277,204,261,86,123,224
18137848,164,276,202,259,86,124,224
18138848,163,271,200,259,86,124,223
18139848,162,269,199,259,86,125,224
18140848,163,267,197,262,86,124,224
18141848,163,266,195,272,85,125,224
18142848,163,264,193,278,86,125,223
18143848,163,264,192,286,86,127,225
18144848,162,265,190,291,85,124,223
18145848,163,265,188,293,86,124,223
18146848,163,263,187,299,86,124,223
18147848,163,260,185,310,86,124,225
18148848,163,258,187,323,86,124,223
18149848,162,256,183,331,86,124,223
18150848,163,252,180,332,86,124,224
18151848,163,250,180,328,86,125,222
18152848,162,248,178,326,83,124,223
18153848,162,246,177,322,86,124,224
18154848,162,244,175,321,88,124,223
18155848,162,242,175,318,86,126,223
18156848,162,240,173,314,83,124,224
18157848,164,237,172,313,84,124,223
18158848,162,235,171,309,86,124,223
18159848,162,234,169,307,86,126,223
18160848,162,236,168,305,86,124,222
18161848,163,245,171,304,86,125,224
18162848,162,256,181,303,87,124,223
18163848,161,264,185,300,86,124,224
18164848,162,273,184,297,86,125,222
18165848,161,277,184,298,86,125,221
18166848,164,276,186,298,85,125,226
18167848,168,277,195,296,86,125,223
18168848,176,290,204,295,87,125,224
18169848,180,311,213,294,87,124,223
18170848,180,337,217,289,87,125,224
18171848,181,348,218,295,87,125,224
18172848,184,343,214,299,87,125,223
18173848,189,340,216,299,87,124,224
18174848,196,335,212,297,87,125,223
18175848,199,332,216,296,88,124,224
18176848,199,328,229,295,89,125,224
18177848,198,324,232,295,87,124,225
18178848,194,321,234,291,85,124,224
18179848,196,320,235,288,88,124,224
18180848,195,318,235,287,89,124,223
18181848,195,318,240,287,89,124,223
18182848,195,317,245,286,89,123,224
18183848,196,317,247,286,89,124,223
18184848,197,315,246,284,90,127,222
18185848,196,323,245,284,89,124,224
18186848,194,324,245,282,89,124,224
18187848,194,325,242,279,92,124,222
18188848,191,330,247,278,89,123,223
18189848,193,331,255,276,89,124,222
18190848,192,327,255,275,89,127,224
18191848,190,327,251,272,89,124,223
18192848,190,325,248,270,89,124,223
18193848,190,322,249,269,89,124,224
18194848,191,322,255,267,87,124,223
18195848,193,315,259,270,89,124,223
18196848,194,313,262,273,89,124,224
18197848,194,310,263,278,89,125,224
18198848,191,306,264,279,87,124,220
18199848,193,303,263,279,88,123,223
18200848,192,299,261,277,92,124,226
18201848,190,296,259,276,88,124,224
18202848,189,295,256,273,91,124,223
18203848,188,290,251,272,88,124,224
18204848,188,286,248,270,88,124,223
18205848,187,283,246,276,88,123,224
18206848,186,281,242,275,86,124,223
18207848,186,278,240,273,87,123,223
18208848,186,276,237,272,87,124,224
18209848,189,274,235,270,88,124,223
18210848,185,271,233,269,88,127,223
18211848,183,267,230,272,87,123,225
18212848,183,265,228,277,88,125,223
18213848,182,263,225,274,87,124,223
18214848,182,261,222,272,87,124,223
18215848,182,258,220,271,88,125,223
18216848,183,255,218,271,87,126,224
18217848,182,252,216,268,87,125,223
18218848,181,250,213,267,87,126,218
18219848,179,248,211,265,87,127,224
18220848,179,245,209,263,87,126,223
18221848,179,244,207,262,87,124,223
18222848,179,242,205,258,89,125,224
18223848,179,240,204,262,88,126,224
18224848,175,238,202,260,87,127,223
18225848,177,236,199,259,87,125,220
18226848,176,236,198,258,87,125,225
18227848,176,233,196,257,87,126,226
18228848,176,231,194,254,88,127,224
18229848,176,230,192,252,87,125,225
18230848,176,228,192,252,87,125,221
18231848,176,227,186,256,87,121,225
18232848,171,231,187,259,87,128,224
18233848,169,236,186,262,87,125,222
18234848,173,242,185,261,87,125,222
18235848,174,252,183,262,86,125,222
18236848,169,261,181,261,87,125,223
18237848,173,264,192,262,87,126,223
18238848,173,259,218,261,87,126,225
18239848,173,257,241,256,89,126,223
18240848,173,255,249,259,87,126,222
18241848,173,267,248,258,87,126,222
18242848,172,278,252,259,87,126,221
18243848,174,278,263,254,87,125,222
18244848,177,277,277,252,87,125,222
18245848,177,280,288,250,87,125,222
18246848,178,289,299,251,87,125,222
18247848,179,301,304,250,88,125,221
18248848,180,309,308,247,87,125,224
18249848,179,308,310,247,88,124,222
18250848,179,305,310,247,88,127,223
18251848,179,300,308,248,88,124,223
18252848,178,298,304,246,87,124,222
18253848,178,294,300,244,88,126,223
18254848,177,292,295,247,89,126,222
18255848,177,288,292,247,84,125,221
18256848,177,285,288,249,88,126,222
18257848,177,280,285,249,88,126,223
18258848,177,279,280,248,89,127,222
18259848,175,276,277,248,91,126,222
18260848,175,274,274,247,85,127,222
18261848,174,272,270,247,86,127,222
18262848,174,268,266,249,89,126,222
18263848,173,266,264,255,88,126,222
18264848,173,264,256,257,90,126,223
18265848,170,262,257,254,89,127,223
18266848,176,260,253,254,89,125,222
18267848,170,255,250,254,88,127,223
18268848,172,254,247,253,88,127,221
18269848,172,252,244,252,88,128,222
18270848,172,250,242,255,88,127,222
18271848,171,248,238,256,88,127,222
18272848,171,245,236,255,87,127,223
18273848,171,243,234,258,89,127,223
18274848,171,242,231,258,88,127,222
18275848,170,240,229,258,88,122,221
18276848,170,237,226,257,88,126,223
18277848,171,235,224,262,88,127,222
18278848,171,234,221,264,87,127,226
18279848,168,231,218,266,90,126,223
18280848,168,230,216,269,88,126,222
18281848,168,228,214,268,88,126,222
18282848,171,227,212,267,88,126,223
18283848,169,229,210,269,88,126,222
18284848,168,223,209,265,87,126,222
18285848,168,221,208,264,88,127,223
18286848,168,219,204,262,87,127,223
18287848,168,219,202,258,87,126,223
18288848,167,217,201,260,87,126,222
18289848,169,216,201,259,87,127,224
18290848,166,214,200,258,87,129,223
18291848,167,217,199,259,85,126,223
18292848,167,220,196,259,87,125,221
18293848,167,224,196,258,87,124,223
18294848,163,224,194,258,87,125,222
18295848,166,223,192,257,88,126,221
18296848,166,226,192,255,86,126,219
18297848,167,234,195,255,87,126,220
18298848,169,242,197,257,87,125,218
18299848,168,242,212,254,87,125,217
18300848,168,242,227,253,87,125,218
18301848,168,240,237,250,87,125,222
18302848,171,245,238,250,88,126,218
18303848,177,252,238,249,88,126,218
18304848,179,256,238,247,87,126,218
18305848,178,258,232,246,88,126,217
18306848,178,256,230,245,87,126,219
18307848,177,258,234,244,87,125,216
18308848,181,273,244,243,87,127,217
18309848,179,282,252,243,87,126,219
18310848,183,285,264,241,87,125,222
18311848,179,279,277,241,87,125,219
18312848,180,276,285,240,87,125,219
18313848,179,274,291,238,87,125,219
18314848,179,272,292,237,87,125,219
18315848,177,270,293,235,87,128,219
18316848,178,271,294,235,87,125,219
18317848,178,278,293,234,87,125,217
18318848,177,289,292,234,87,125,220
18319848,177,297,288,233,88,125,220
18320848,176,297,284,234,87,125,226
18321848,176,296,281,232,84,123,225
18322848,175,294,277,231,88,122,227
18323848,172,291,272,230,88,124,227
18324848,174,293,269,230,87,125,227
18325848,174,303,267,230,88,125,229
18326848,173,323,263,229,88,124,227
18327848,173,331,260,229,89,125,228
18328848,173,336,257,228,88,126,227
18329848,173,336,254,229,88,127,226
18330848,172,332,248,229,88,127,228
18331848,171,328,247,230,85,127,235
18332848,172,325,245,230,88,126,236
18333848,171,321,242,230,89,128,237
18334848,170,316,239,229,87,126,237
18335848,171,314,236,229,89,128,237
18336848,170,310,233,226,87,128,236
18337848,170,306,231,227,88,129,241
18338848,170,303,228,227,88,128,241
18339848,170,298,226,228,88,128,239
18340848,169,295,223,228,88,128,237
18341848,169,293,220,229,87,130,237
18342848,169,293,218,232,88,131,237
18343848,169,288,217,235,88,129,237
18344848,168,283,215,236,88,130,237
18345848,169,281,213,239,88,130,237
18346848,168,279,211,249,88,131,239
18347848,168,276,209,252,88,131,235
18348848,168,274,206,250,88,131,236
18349848,169,272,205,250,88,131,239
18350848,168,272,203,251,88,131,238
18351848,167,272,202,250,88,130,235
18352848,167,273,198,250,88,130,235
18353848,167,273,203,251,87,130,235
18354848,167,273,214,254,87,127,235
18355848,167,271,218,253,88,130,235
18356848,166,268,221,252,88,129,234
18357848,166,268,220,256,88,128,235
18358848,166,277,220,266,88,129,233
18359848,166,288,216,278,88,129,233
18360848,167,297,216,285,89,128,234
18361848,168,308,218,281,91,129,233
18362848,167,309,221,291,88,130,233
18363848,167,306,218,302,88,125,233
18364848,163,308,219,306,88,127,232
18365848,167,315,217,305,87,127,233
18366848,167,327,216,302,88,128,233
18367848,167,336,215,300,88,128,233
18368848,166,337,216,297,87,127,233
18369848,168,336,215,295,88,126,232
18370848,171,332,224,293,87,127,230
18371848,178,340,236,293,88,127,232
18372848,183,354,241,293,87,127,232
18373848,185,362,242,291,87,129,232
18374848,186,363,240,289,87,127,232
18375848,186,362,236,286,87,125,231
18376848,184,364,236,287,87,125,231
18377848,184,363,237,282,87,126,232
18378848,185,357,235,280,87,127,232
18379848,184,353,234,278,87,125,231
18380848,183,351,240,277,87,125,231
18381848,182,344,249,274,87,125,230
18382848,182,340,261,276,90,125,231
18383848,182,336,268,270,87,124,231
18384848,181,332,276,268,87,124,230
18385848,180,327,283,267,86,125,230
18386848,180,328,288,266,87,125,230
18387848,180,327,289,266,91,125,230
18388848,177,329,285,267,87,125,229
18389848,180,329,289,265,87,124,231
18390848,179,331,283,264,87,125,230
18391848,178,329,280,263,87,126,231
18392848,178,323,277,262,86,124,230
18393848,178,319,274,262,88,124,225
18394848,177,315,269,260,87,125,231
18395848,177,312,266,258,87,126,227
18396848,176,311,263,257,87,124,229
18397848,179,305,260,255,87,120,230
18398848,175,301,257,253,87,124,229
18399848,175,297,252,252,87,124,230
18400848,175,295,251,251,88,124,230
18401848,174,290,247,249,83,124,229
18402848,175,289,245,248,87,125,230
18403848,173,286,242,247,86,124,227
18404848,173,282,240,245,87,123,227
18405848,173,280,237,245,87,123,226
18406848,172,276,234,243,87,125,227
18407848,172,276,232,242,87,126,226
18408848,172,271,226,241,88,125,227
18409848,171,269,227,240,88,126,227
18410848,171,266,225,235,87,126,226
18411848,171,264,224,240,91,125,226
18412848,170,266,224,233,87,125,226
18413848,171,270,221,237,85,126,226
18414848,171,271,219,238,87,127,226
18415848,170,279,218,238,88,125,226
18416848,170,277,222,237,87,126,226
18417848,170,276,226,237,88,126,226
18418848,170,276,226,236,88,126,226
18419848,172,283,224,237,88,126,226
18420848,178,299,221,234,88,129,225
18421848,179,314,220,235,88,126,226
18422848,180,318,218,238,87,126,226
18423848,180,312,216,239,88,125,224
18424848,183,329,215,238,88,126,226
18425848,182,345,220,238,88,125,226
18426848,191,363,229,238,87,125,226
18427848,189,378,244,239,88,125,226
18428848,189,387,259,245,87,125,225
18429848,188,391,261,243,89,125,226
18430848,188,388,260,246,87,125,225
18431848,188,390,263,254,88,124,226
18432848,190,409,267,257,88,124,226
18433848,191,433,268,254,87,125,225
18434848,190,452,271,252,87,124,226
18435848,189,470,278,252,87,123,225
18436848,189,474,276,251,88,123,225
18437848,189,467,276,250,87,124,226
18438848,189,459,284,249,87,124,225
18439848,188,453,298,243,88,124,225
18440848,188,449,310,245,88,124,225
18441848,188,443,324,245,88,123,225
18442848,187,437,337,245,87,124,225
18443848,188,433,346,244,87,124,225
18444848,188,428,349,243,87,124,224
18445848,187,428,349,239,88,124,225
18446848,187,424,355,241,88,124,225
18447848,187,419,353,240,87,122,225
18448848,188,409,349,240,87,123,225
18449848,186,408,345,244,87,123,225
18450848,186,402,340,242,91,123,226
18451848,184,396,335,246,87,124,225
18452848,184,392,330,244,86,123,225
18453848,183,387,327,243,87,119,222
18454848,183,380,321,244,87,124,225
18455848,183,376,316,241,87,123,225
18456848,183,371,312,246,87,124,225
18457848,182,367,308,245,87,123,224
18458848,181,361,304,248,87,123,225
18459848,180,357,298,247,86,123,224
18460848,180,354,296,247,87,120,225
18461848,180,347,292,248,87,123,224
18462848,180,344,288,249,86,123,224
18463848,179,340,283,249,87,123,225
18464848,178,336,280,247,87,123,225
18465848,178,332,276,247,87,123,224
18466848,178,328,272,247,87,127,226
18467848,176,322,269,247,91,123,224
18468848,177,321,265,246,87,122,224
18469848,176,316,262,245,87,123,224
18470848,176,313,259,244,87,123,225
18471848,176,310,256,243,87,123,224
18472848,175,308,253,245,86,123,224
18473848,175,309,249,241,86,122,223
18474848,174,310,247,241,87,122,224
18475848,174,308,244,240,86,123,223
18476848,174,307,242,240,87,122,224
18477848,178,308,239,239,86,123,224
18478848,175,309,236,238,86,120,219
18479848,174,309,233,240,86,118,222
18480848,174,307,231,239,87,122,223
18481848,174,305,227,237,87,123,224
18482848,169,303,227,237,88,123,224
18483848,173,299,224,236,88,123,224
18484848,172,295,221,235,88,123,224
18485848,175,294,219,235,86,123,223
18486848,172,293,217,233,87,122,222
18487848,171,291,212,232,87,122,224
18488848,174,289,213,232,88,126,224
18489848,172,286,214,231,88,123,224
18490848,170,286,226,231,88,123,224
18491848,175,298,243,229,89,123,223
18492848,181,311,253,229,90,123,223
18493848,189,320,255,227,90,122,223
18494848,198,321,253,227,90,122,224
18495848,202,317,257,227,90,123,225
18496848,202,324,267,226,90,124,224
18497848,201,331,269,225,89,125,223
18498848,207,337,272,225,90,124,224
18499848,216,355,275,224,91,124,224
18500848,229,378,289,224,90,125,228
18501848,237,387,308,223,90,124,225
18502848,239,387,327,222,88,124,223
18503848,244,384,342,221,91,124,224
18504848,241,379,354,221,90,124,223
18505848,240,373,362,222,90,123,223
18506848,239,368,368,222,90,123,224
18507848,236,363,360,221,90,124,223
18508848,236,364,363,225,90,125,223
18509848,233,361,365,224,90,123,224
18510848,231,360,360,225,90,124,224
18511848,230,360,356,226,93,124,224
18512848,228,362,358,229,89,124,224
18513848,228,364,364,233,90,126,224
18514848,225,361,365,233,90,124,224
18515848,222,356,363,234,89,124,224
18516848,223,354,362,238,91,125,224
18517848,221,361,357,239,89,124,223
18518848,219,371,352,239,90,124,223
18519848,218,373,346,241,90,124,224
18520848,218,368,341,243,90,124,224
18521848,215,363,336,246,89,123,223
18522848,215,358,331,253,89,124,223
18523848,214,355,329,254,89,123,224
18524848,213,351,322,256,90,124,223
18525848,211,346,320,256,89,126,224
18526848,211,342,313,262,90,124,223
18527848,209,339,308,270,89,124,223
18528848,208,337,305,281,89,124,224
18529848,207,334,300,283,89,124,223
18530848,205,329,296,281,90,124,224
18531848,204,327,292,279,90,126,224
18532848,203,324,288,278,90,124,223
18533848,205,325,285,276,90,123,223
18534848,202,331,280,274,90,124,222
18535848,201,335,277,272,89,126,224
18536848,199,333,274,269,94,123,223
18537848,198,329,270,268,95,124,222
18538848,197,327,267,266,95,123,224
18539848,197,323,264,264,91,123,223
18540848,197,317,262,262,96,122,223
18541848,196,315,257,261,95,123,222
18542848,195,314,254,260,95,123,223
18543848,195,310,250,258,95,124,224
18544848,192,306,248,257,95,122,223
18545848,193,304,246,255,95,123,223
18546848,192,300,242,253,100,123,223
18547848,190,296,240,252,103,123,223
18548848,191,290,238,251,104,123,223
18549848,189,291,234,251,105,123,223
18550848,189,286,232,249,104,122,223
18551848,187,284,229,246,104,123,222
18552848,187,281,227,247,105,123,223
18553848,186,278,224,246,110,123,224
18554848,186,274,222,244,112,123,224
18555848,185,274,219,243,114,124,223
18556848,185,273,217,243,115,122,224
18557848,183,268,214,241,115,128,224
18558848,185,265,213,240,116,131,224
18559848,184,263,210,239,115,128,224
18560848,182,261,209,237,115,130,223
18561848,183,260,207,237,115,130,223
18562848,182,259,204,238,113,132,223
18563848,182,257,203,236,114,133,222
18564848,182,255,204,236,113,133,223
18565848,180,253,229,235,112,133,223
18566848,180,251,275,234,111,132,222
18567848,180,249,310,234,107,134,223
18568848,179,253,323,233,111,133,223
18569848,179,260,320,232,110,133,223
18570848,183,267,327,231,109,132,223
18571848,186,270,344,230,108,132,222
18572848,189,269,360,230,108,130,223
18573848,187,266,376,228,107,132,223
18574848,188,265,393,228,107,132,224
18575848,187,262,410,227,107,132,222
18576848,186,261,421,225,106,130,223
18577848,186,260,428,225,106,131,222
18578848,186,257,434,224,106,131,223
18579848,185,256,435,223,106,131,226
18580848,185,252,429,223,105,131,223
18581848,184,251,423,221,104,130,223
18582848,183,248,417,217,104,130,223
18583848,183,244,410,220,107,130,224
18584848,182,245,405,220,103,130,227
18585848,181,242,396,219,102,130,223
18586848,181,244,392,219,102,130,224
18587848,181,238,385,219,101,130,223
18588848,182,237,378,214,102,128,222
18589848,180,236,372,217,101,129,223
18590848,179,232,366,217,101,129,223
18591848,179,231,361,216,102,129,223
18592848,179,230,356,216,100,128,222
18593848,181,230,350,215,101,129,224
18594848,178,228,345,214,100,128,222
18595848,177,228,340,216,99,128,224
18596848,177,226,339,217,99,128,222
18597848,177,222,337,215,99,128,223
18598848,176,221,333,217,99,128,222
18599848,176,219,328,217,98,128,223
18600848,176,224,325,216,99,128,222
18601848,175,225,320,216,98,128,223
18602848,177,227,315,215,98,127,223
18603848,176,225,311,215,97,127,223
18604848,176,225,307,214,98,128,222
18605848,174,227,304,214,97,130,220
18606848,175,231,299,213,97,127,222
18607848,175,230,295,213,97,127,224
18608848,174,230,290,213,99,125,222
18609848,173,228,287,212,97,126,223
18610848,174,227,283,212,96,126,223
18611848,173,226,280,211,96,126,223
18612848,173,224,276,210,95,126,223
18613848,171,220,273,211,96,122,223
18614848,171,220,269,211,96,126,222
18615848,171,219,265,211,96,125,223
18616848,170,218,262,214,97,125,223
18617848,171,215,260,211,98,126,222
18618848,170,214,257,211,97,127,223
18619848,171,213,252,211,98,127,224
18620848,171,212,249,210,98,128,223
18621848,171,214,247,209,98,129,226
18622848,169,216,243,210,100,127,223
18623848,168,218,241,209,102,127,222
18624848,170,218,238,209,104,127,224
18625848,169,216,235,209,105,125,223
18626848,170,215,233,209,107,127,223
18627848,169,217,230,209,106,127,223
18628848,169,214,228,210,107,127,223
18629848,168,219,226,213,107,128,226
18630848,169,223,224,210,106,127,224
18631848,169,225,220,211,107,127,223
18632848,168,225,219,211,106,127,222
18633848,167,223,217,209,106,125,223
18634848,167,224,214,208,108,126,222
18635848,168,220,212,208,106,126,224
18636848,167,218,211,207,106,127,223
18637848,168,217,208,208,106,126,224
18638848,167,216,206,207,105,127,223
18639848,167,214,203,205,100,127,223
18640848,170,213,202,207,105,126,225
18641848,167,211,200,206,105,126,222
18642848,168,210,199,206,105,126,222
18643848,167,209,216,205,105,126,222
18644848,166,210,237,205,105,126,222
18645848,166,212,255,206,104,128,223
18646848,167,216,262,207,104,129,223
18647848,167,224,259,209,104,125,224
18648848,172,235,263,211,106,129,223
18649848,185,252,275,211,107,129,222
18650848,199,264,290,210,112,131,223
18651848,204,263,298,213,114,129,227
18652848,202,270,305,214,116,129,222
18653848,208,289,306,215,116,128,223
18654848,215,308,304,218,116,129,223
18655848,225,319,304,220,116,129,223
18656848,230,325,308,223,115,129,223
18657848,230,327,310,225,114,129,223
18658848,230,323,309,225,114,128,223
18659848,229,320,309,223,116,128,223
18660848,227,316,300,224,110,130,222
18661848,227,312,297,224,111,129,223
18662848,225,308,294,223,111,126,222
18663848,224,306,292,222,111,129,223
18664848,221,301,293,221,110,127,223
18665848,223,302,288,221,110,129,222
18666848,216,305,284,221,110,129,222
18667848,218,308,280,219,110,128,223
18668848,217,311,277,221,109,129,223
18669848,215,312,276,224,109,128,222
18670848,216,309,275,227,108,128,224
18671848,226,306,273,228,108,128,221
18672848,234,310,271,228,108,128,221
18673848,237,320,267,228,108,127,220
18674848,239,329,272,231,107,127,220
18675848,245,332,277,232,109,127,219
18676848,252,333,276,232,111,128,220
18677848,259,330,274,232,110,128,219
18678848,262,327,274,233,109,128,220
18679848,260,323,267,232,107,128,220
18680848,259,320,263,230,108,127,220
18681848,257,315,261,230,109,127,220
18682848,253,312,258,230,105,128,220
18683848,251,308,253,231,107,128,219
18684848,249,306,250,231,107,128,221
18685848,247,298,248,229,106,127,220
18686848,246,298,245,231,106,128,221
18687848,244,296,245,229,106,127,220
18688848,243,312,266,231,105,128,220
18689848,241,342,297,233,106,128,219
18690848,239,372,320,236,105,127,220
18691848,237,403,329,243,106,128,220
18692848,236,427,326,252,108,128,221
18693848,232,441,333,264,111,128,220
18694848,236,441,347,266,111,127,221
18695848,240,439,366,266,112,127,221
18696848,239,461,381,280,112,129,221
18697848,238,504,388,296,110,127,220
18698848,241,548,391,302,111,126,221
18699848,243,573,394,301,110,126,220
18700848,244,584,394,301,109,126,220
18701848,244,588,396,299,109,126,220
18702848,242,590,399,297,111,127,219
18703848,240,580,398,294,108,127,220
18704848,237,575,394,297,108,126,220
18705848,237,567,389,297,110,127,220
18706848,238,560,381,302,107,126,220
18707848,233,551,377,300,106,125,220
18708848,232,542,371,298,106,126,220
18709848,230,533,364,297,102,125,219
18710848,228,524,359,294,105,126,219
18711848,230,517,354,292,105,125,220
18712848,225,507,348,292,104,125,220
18713848,223,500,344,300,104,125,220
18714848,222,492,338,311,104,125,220
18715848,220,485,333,322,103,125,220
18716848,220,477,329,322,103,125,220
18717848,219,470,325,330,102,125,220
18718848,217,463,320,345,102,125,220
18719848,215,457,315,358,102,124,220
18720848,213,450,312,363,101,125,221
18721848,213,443,307,362,101,125,223
18722848,212,437,303,360,104,128,217
18723848,211,433,300,355,101,125,220
18724848,210,427,296,351,100,125,221
18725848,209,423,292,348,100,125,221
18726848,208,417,289,345,99,125,221
18727848,205,410,285,342,102,125,221
18728848,205,408,281,342,99,126,223
18729848,206,407,280,339,99,124,220
18730848,211,403,303,336,98,125,222
18731848,217,405,377,333,98,125,223
18732848,221,407,459,335,95,124,229
18733848,223,406,506,340,98,125,227
18734848,225,402,513,351,97,126,229
18735848,232,412,520,358,97,125,231
18736848,259,438,552,362,97,126,234
18737848,291,471,597,357,98,125,238
18738848,317,498,643,362,98,127,240
18739848,322,519,672,364,98,126,240
18740848,336,521,685,364,97,128,239
18741848,368,540,687,362,97,129,240
18742848,398,572,683,362,98,127,238
18743848,423,589,680,357,99,127,239
18744848,434,595,681,355,101,127,239
18745848,438,598,681,355,102,122,239
18746848,437,599,675,353,101,125,239
18747848,435,598,667,350,102,127,241
18748848,432,591,654,348,106,127,237
18749848,426,580,640,346,111,127,237
18750848,420,577,629,346,114,127,236
18751848,414,574,618,343,122,127,237
18752848,406,580,608,341,127,127,236
18753848,407,582,617,337,129,125,236
18754848,397,594,633,334,129,127,236
18755848,393,599,648,333,129,127,236
18756848,388,595,653,333,128,126,245
18757848,382,586,649,333,129,128,266
18758848,378,582,636,334,128,126,292
18759848,371,583,632,332,128,127,308
18760848,373,583,632,331,126,126,310
18761848,371,587,633,336,125,129,322
18762848,368,591,632,342,124,124,339
18763848,363,595,627,346,122,125,344
18764848,358,586,623,346,125,125,343
18765848,353,587,616,345,123,125,341
18766848,348,579,609,342,122,125,338
18767848,346,570,601,343,122,125,337
18768848,342,560,594,342,119,124,333
18769848,338,552,588,341,120,128,337
18770848,334,544,582,339,119,126,338
18771848,329,535,568,335,119,125,337
18772848,326,527,559,333,118,124,333
18773848,322,514,549,330,116,124,336
18774848,318,511,541,328,116,125,335
18775848,315,502,533,330,115,124,331
18776848,312,496,520,332,113,125,337
18777848,308,489,512,332,115,124,337
18778848,305,483,516,329,112,124,337
18779848,301,472,530,332,114,124,337
18780848,298,470,544,338,113,124,338
18781848,296,465,546,341,114,125,338
18782848,293,458,539,339,111,124,338
18783848,290,454,531,339,111,125,338
18784848,292,446,531,345,111,126,339
18785848,292,439,536,345,111,124,339
18786848,295,435,542,345,111,124,340
18787848,295,427,547,347,109,124,340
18788848,294,422,549,345,110,124,340
18789848,292,418,547,342,108,124,340
18790848,288,413,542,338,108,123,339
18791848,286,409,534,334,107,124,340
18792848,281,404,524,331,103,124,338
18793848,281,400,515,330,107,124,338
18794848,275,394,507,327,108,123,338
18795848,276,389,502,324,106,123,338
18796848,270,385,490,330,106,123,338
18797848,270,378,483,335,106,124,338
18798848,267,374,472,332,105,124,338
18799848,265,370,465,337,104,124,337
18800848,263,361,458,344,104,124,337
18801848,260,361,451,348,105,126,337
18802848,258,355,442,348,103,125,337
18803848,256,350,436,351,103,127,337
18804848,253,346,428,356,103,127,336
18805848,250,342,421,354,103,128,336
18806848,249,338,415,355,103,128,336
18807848,247,333,408,358,104,127,337
18808848,245,326,402,362,103,129,337
18809848,243,325,395,364,102,129,337
18810848,241,323,390,360,102,129,337
18811848,240,317,381,357,102,129,335
18812848,237,314,376,362,102,128,335
18813848,236,311,371,370,102,128,334
18814848,238,307,365,374,102,128,333
18815848,232,304,360,374,101,128,333
18816848,232,300,354,375,101,127,334
18817848,230,297,349,375,102,127,331
18818848,228,295,344,372,102,128,331
18819848,227,296,343,367,100,128,330
18820848,225,289,348,364,100,127,331
18821848,224,297,393,362,101,127,336
18822848,221,320,491,359,100,126,340
18823848,220,336,588,355,100,126,341
18824848,219,357,648,348,103,125,343
18825848,218,369,660,349,104,127,346
18826848,217,367,663,349,105,125,348
18827848,226,366,696,343,105,126,353
18828848,253,375,742,342,105,126,356
18829848,289,381,798,341,105,126,360
18830848,311,384,851,338,103,122,366
18831848,317,390,884,334,104,125,363
18832848,322,393,884,333,105,126,363
18833848,334,402,886,331,105,125,362
18834848,345,416,900,330,106,125,360
18835848,348,438,896,332,107,125,357
18836848,342,459,881,330,107,125,356
18837848,338,490,872,329,106,125,355
18838848,335,510,876,328,107,124,352
18839848,332,518,870,326,110,124,350
18840848,329,513,855,326,114,125,347
18841848,326,504,853,324,115,124,343
18842848,322,497,864,320,115,126,343
18843848,323,490,879,311,114,126,340
18844848,323,483,892,323,114,125,343
18845848,316,479,896,335,114,125,338
18846848,317,486,897,337,113,127,338
18847848,316,494,900,350,113,127,336
18848848,310,495,900,368,113,128,335
18849848,307,490,898,373,111,127,334
18850848,303,483,894,374,113,129,334
18851848,300,476,886,384,113,126,333
18852848,297,472,873,388,116,127,332
18853848,294,470,860,384,119,126,332
18854848,291,469,844,380,124,126,332
18855848,286,469,828,372,131,127,330
18856848,288,469,812,373,137,128,329
18857848,282,470,796,371,143,125,328
18858848,280,470,782,370,147,126,327
18859848,274,467,767,367,149,126,329
18860848,275,464,754,370,150,127,329
18861848,272,459,747,375,150,127,329
18862848,270,455,737,376,150,126,330
18863848,267,445,726,374,149,126,330
18864848,265,442,720,372,150,128,331
18865848,263,443,726,379,151,125,330
18866848,260,455,732,388,152,126,331
18867848,258,468,733,391,153,125,332
18868848,257,478,742,390,152,125,334
18869848,252,502,762,384,152,124,337
18870848,251,519,794,379,152,124,338
18871848,249,527,820,374,151,124,340
18872848,249,525,825,373,150,124,344
18873848,261,523,812,370,150,125,346
18874848,273,532,808,367,149,124,349
18875848,281,544,814,362,147,125,350
18876848,281,563,821,358,147,124,352
18877848,283,587,839,356,145,125,353
18878848,293,615,855,352,144,124,355
18879848,310,657,867,348,146,124,354
18880848,321,690,871,345,141,126,355
18881848,320,706,867,343,139,124,353
18882848,320,698,863,342,139,125,349
18883848,327,690,858,346,137,125,348
18884848,336,689,854,344,136,125,345
18885848,342,691,852,346,135,126,343
18886848,341,694,839,351,134,128,342
18887848,339,710,834,352,134,132,342
18888848,333,743,881,348,132,134,341
18889848,331,797,944,345,132,136,342
18890848,331,845,995,344,136,138,343
18891848,333,904,1023,345,140,145,345
18892848,331,964,1027,342,150,149,348
18893848,333,1005,1015,346,161,152,350
18894848,355,1042,1027,349,181,154,355
18895848,398,1050,1016,347,197,153,359
18896848,448,1048,1015,344,205,153,363
18897848,494,1086,1029,341,207,153,369
18898848,521,1142,1049,337,205,158,371
18899848,525,1210,1075,334,214,167,371
18900848,518,1277,1104,334,224,171,369
18901848,512,1346,1142,328,236,170,365
18902848,507,1403,1182,325,250,169,364
18903848,495,1452,1214,323,266,168,360
18904848,493,1487,1227,323,277,169,357
18905848,509,1500,1221,323,281,172,356
18906848,536,1484,1197,324,279,173,355
18907848,565,1462,1184,316,276,172,352
18908848,587,1452,1197,316,272,171,351
18909848,603,1447,1234,315,267,170,348
18910848,614,1437,1264,315,263,169,345
18911848,623,1427,1284,314,259,166,343
18912848,631,1419,1298,312,256,168,343
18913848,637,1407,1290,310,251,166,341
18914848,643,1384,1270,307,247,166,339
18915848,644,1367,1245,304,246,167,340
18916848,633,1369,1220,301,248,165,337
18917848,628,1373,1208,299,253,165,336
18918848,618,1371,1207,296,258,163,334
18919848,608,1356,1205,295,261,163,333
18920848,598,1332,1205,292,263,162,332
18921848,588,1309,1197,293,265,161,336
18922848,581,1293,1187,295,266,160,332
18923848,589,1287,1173,293,265,154,334
18924848,611,1293,1158,291,260,156,332
18925848,630,1304,1149,288,260,157,330
18926848,642,1324,1141,290,256,158,329
18927848,640,1329,1131,289,257,155,329
18928848,633,1322,1111,295,258,156,324
18929848,625,1304,1091,299,259,155,322
18930848,614,1280,1073,298,257,154,318
18931848,604,1253,1054,295,253,152,315
18932848,596,1230,1033,293,251,153,312
18933848,585,1208,1012,291,247,152,313
18934848,583,1197,993,289,244,151,308
18935848,588,1199,973,286,241,151,306
18936848,598,1194,953,284,236,150,303
18937848,612,1186,934,283,234,150,301
18938848,624,1182,919,280,231,150,301
18939848,629,1180,936,279,228,149,301
18940848,630,1185,993,281,225,149,303
18941848,624,1217,1067,283,222,149,304
18942848,615,1259,1119,282,217,149,306
18943848,606,1303,1146,286,217,150,308
18944848,598,1328,1135,286,213,148,309
18945848,594,1335,1118,286,211,149,312
18946848,600,1318,1121,288,209,150,317
18947848,630,1314,1137,292,207,150,320
18948848,674,1336,1132,292,204,154,326
18949848,716,1368,1165,295,201,151,325
18950848,741,1405,1193,291,198,151,324
18951848,740,1451,1199,292,196,150,322
18952848,736,1482,1181,293,194,150,322
18953848,748,1489,1192,294,193,150,321
18954848,755,1468,1235,295,190,150,320
18955848,760,1439,1292,292,188,150,317
18956848,754,1414,1347,292,185,149,315
18957848,740,1398,1392,294,185,149,314
18958848,728,1385,1416,295,184,148,313
18959848,716,1366,1414,293,184,148,311
18960848,712,1340,1399,291,185,148,307
18961848,707,1317,1379,286,181,149,310
18962848,698,1291,1353,287,182,148,308
18963848,690,1272,1326,289,181,148,307
18964848,681,1260,1306,288,179,150,306
18965848,668,1255,1293,285,180,156,305
18966848,659,1255,1283,284,174,163,304
18967848,648,1253,1270,283,179,163,302
18968848,640,1240,1249,286,181,166,300
18969848,627,1220,1224,282,186,167,300
18970848,616,1196,1200,280,195,169,298
18971848,612,1180,1180,278,201,169,298
18972848,603,1174,1160,277,204,171,296
18973848,593,1158,1138,276,205,168,295
18974848,584,1139,1115,274,203,167,294
18975848,573,1140,1094,273,205,166,292
18976848,565,1138,1072,270,213,165,292
18977848,556,1144,1050,269,223,164,291
18978848,547,1152,1030,267,234,163,289
18979848,538,1152,1009,265,243,163,286
18980848,531,1136,993,264,250,163,284
18981848,521,1121,977,263,258,162,283
18982848,515,1114,958,261,262,163,281
18983848,506,1110,939,262,265,161,280
18984848,499,1107,920,259,265,161,279
18985848,489,1109,912,257,264,160,276
18986848,484,1108,916,256,266,160,276
18987848,478,1105,921,253,261,159,275
18988848,470,1091,928,252,261,158,274
18989848,464,1088,923,250,259,158,274
18990848,463,1115,910,248,258,157,274
18991848,464,1149,899,248,257,156,274
18992848,471,1173,883,246,254,155,274
18993848,473,1174,872,246,250,154,274
18994848,485,1157,877,245,249,153,275
18995848,488,1144,883,244,245,153,274
18996848,490,1152,872,242,242,152,277
18997848,490,1171,881,242,241,152,273
18998848,487,1207,882,236,236,151,272
18999848,484,1266,872,239,232,150,272
19000848,478,1324,857,238,229,149,266
19001848,475,1358,844,236,227,150,268
19002848,480,1375,832,238,223,152,266
19003848,486,1369,823,237,220,149,264
19004848,486,1350,818,235,218,151,262
19005848,481,1337,814,236,216,148,260
19006848,475,1349,805,233,213,148,258
19007848,468,1350,801,234,210,147,257
19008848,460,1332,812,233,209,146,255
19009848,455,1306,830,232,210,146,256
19010848,449,1281,823,232,205,146,253
19011848,443,1257,810,230,201,146,248
19012848,435,1236,808,229,202,144,250
19013848,429,1224,804,230,200,144,249
19014848,424,1217,791,229,200,145,247
19015848,419,1201,787,228,199,144,247
19016848,412,1179,788,228,196,142,247
19017848,407,1169,787,227,195,142,247
19018848,401,1170,785,227,193,142,250
19019848,395,1176,781,225,190,144,246
19020848,391,1179,778,226,192,141,245
19021848,386,1172,768,224,188,141,245
19022848,384,1166,752,225,184,136,244
19023848,379,1155,740,225,186,144,245
19024848,378,1142,728,223,184,141,246
19025848,374,1128,715,223,182,145,244
19026848,371,1109,707,223,180,145,245
19027848,369,1089,699,220,178,146,245
19028848,366,1070,697,220,175,146,244
19029848,360,1052,691,220,176,147,244
19030848,357,1033,687,220,172,149,239
19031848,351,1013,683,220,170,150,243
19032848,349,995,681,219,168,154,243
19033848,345,979,678,218,166,154,242
19034848,342,964,670,217,164,155,242
19035848,337,951,659,219,163,156,242
19036848,335,945,647,218,164,155,241
19037848,329,964,635,217,160,155,241
19038848,326,987,625,217,158,154,241
19039848,322,1010,613,216,157,152,241
19040848,320,1038,604,216,157,152,240
19041848,325,1058,594,215,159,151,240
19042848,331,1058,584,215,165,152,238
19043848,338,1049,583,214,168,152,240
19044848,340,1030,623,216,171,155,240
19045848,337,1030,669,217,175,156,240
19046848,335,1052,698,218,178,156,239
19047848,332,1099,699,217,183,160,239
19048848,330,1155,691,217,180,162,238
19049848,331,1201,696,216,180,163,239
19050848,330,1226,713,216,180,163,240
19051848,331,1222,734,215,178,164,242
19052848,331,1203,752,215,174,164,242
19053848,327,1181,761,214,173,164,245
19054848,330,1163,752,214,171,163,242
19055848,339,1145,757,213,169,163,241
19056848,347,1125,768,213,168,162,241
19057848,353,1105,817,210,166,161,241
19058848,352,1084,898,212,165,163,242
19059848,348,1064,965,211,164,159,241
19060848,345,1046,992,211,163,158,239
19061848,341,1030,980,210,161,157,239
19062848,337,1007,1000,210,163,159,240
19063848,333,990,1046,217,157,151,240
19064848,327,979,1109,213,156,153,243
19065848,324,975,1172,212,154,154,249
19066848,322,969,1226,212,152,152,249
19067848,317,959,1260,213,151,153,252
19068848,314,940,1274,215,150,152,258
19069848,320,929,1268,220,155,152,258
19070848,326,930,1245,218,161,153,258
19071848,333,936,1229,217,168,154,257
19072848,339,950,1219,216,178,155,256
19073848,343,955,1204,216,188,157,251
19074848,347,947,1185,218,197,157,255
19075848,347,931,1163,218,202,156,254
19076848,343,921,1140,217,202,155,256
19077848,340,925,1115,217,199,155,256
19078848,353,949,1095,217,198,154,257
19079848,374,969,1074,216,196,154,258
19080848,401,984,1057,215,195,154,258
19081848,417,978,1035,216,197,153,258
19082848,414,968,1014,215,201,152,257
19083848,409,982,994,215,207,154,257
19084848,408,1012,981,217,210,149,255
19085848,406,1040,966,225,212,151,253
19086848,406,1081,970,237,212,150,251
19087848,415,1131,984,242,212,150,250
19088848,431,1173,1000,241,213,150,250
19089848,436,1196,998,249,216,149,250
19090848,438,1220,983,262,217,148,249
19091848,437,1244,985,265,216,147,249
19092848,431,1250,985,266,214,146,249
19093848,427,1235,978,265,212,146,248
19094848,422,1216,969,266,213,145,247
19095848,417,1221,965,268,210,145,247
19096848,411,1235,949,266,209,148,247
19097848,412,1254,939,263,205,145,246
19098848,423,1283,922,262,206,144,247
19099848,428,1321,916,261,200,142,246
19100848,428,1351,914,259,198,142,245
19101848,423,1370,905,259,196,141,245
19102848,421,1385,897,258,193,145,247
19103848,422,1392,888,256,187,139,245
19104848,422,1397,881,256,189,140,244
19105848,416,1390,869,255,186,139,245
19106848,413,1372,857,253,184,138,244
19107848,415,1350,840,251,183,139,244
19108848,417,1324,825,250,181,143,244
19109848,418,1299,813,248,178,138,243
19110848,417,1273,802,247,177,138,243
19111848,412,1250,788,246,174,138,239
19112848,411,1228,777,245,171,137,242
19113848,404,1206,766,244,170,137,242
19114848,397,1182,756,243,168,136,242
19115848,391,1164,746,243,166,136,242
19116848,388,1149,736,242,165,135,242
19117848,383,1134,721,240,164,135,239
19118848,378,1117,710,239,162,136,241
19119848,373,1123,705,239,161,135,240
19120848,369,1133,700,238,160,133,241
19121848,364,1149,705,236,160,134,238
19122848,361,1162,725,236,163,134,240
19123848,356,1158,742,236,169,134,237
19124848,351,1145,760,235,178,135,237
19125848,347,1124,781,235,188,135,236
19126848,344,1109,793,235,198,131,234
19127848,344,1105,786,235,212,136,235
19128848,343,1104,778,233,219,137,234
19129848,340,1104,785,232,224,135,235
19130848,336,1104,800,231,222,135,235
19131848,333,1101,823,230,225,136,234
19132848,329,1095,840,230,234,136,234
19133848,327,1082,851,230,251,136,234
19134848,324,1064,854,230,267,135,234
19135848,319,1052,856,230,280,136,233
19136848,320,1046,857,230,291,137,233
19137848,321,1042,852,230,296,136,233
19138848,324,1036,842,229,298,137,235
19139848,327,1035,833,229,298,136,237
19140848,332,1037,824,229,299,135,237
19141848,333,1040,819,233,293,135,241
19142848,327,1048,813,235,289,135,241
19143848,325,1065,861,239,284,134,240
19144848,323,1075,913,240,278,134,241
19145848,319,1064,955,243,277,133,241
19146848,315,1060,985,244,273,133,242
19147848,327,1078,1006,242,269,134,243
19148848,336,1106,1000,241,264,133,244
19149848,355,1137,987,240,256,130,245
19150848,382,1168,995,240,258,132,249
19151848,402,1188,1013,243,257,130,247
19152848,401,1191,1030,251,255,132,247
19153848,405,1174,1042,261,251,132,246
19154848,420,1161,1052,268,247,132,246
19155848,429,1159,1073,273,245,131,246
19156848,430,1141,1078,273,242,132,245
19157848,426,1119,1061,273,238,132,245
19158848,428,1099,1041,277,232,132,245
19159848,432,1084,1025,281,232,132,245
19160848,433,1064,1006,284,228,132,244
19161848,432,1053,991,285,225,132,243
19162848,438,1035,978,284,222,132,245
19163848,441,1019,960,283,219,131,245
19164848,444,1004,944,282,216,131,244
19165848,443,986,924,280,213,131,243
19166848,443,969,910,278,210,130,243
19167848,441,955,889,277,208,129,243
19168848,438,934,876,276,205,128,242
19169848,431,917,864,274,202,130,244
19170848,425,901,857,272,199,130,241
19171848,428,884,854,270,199,130,242
19172848,420,875,838,269,195,130,242
19173848,415,881,821,268,193,130,241
19174848,408,893,806,266,190,130,241
19175848,403,896,791,264,187,130,242
19176848,397,901,790,262,185,130,240
19177848,393,920,831,261,183,130,245
19178848,388,933,876,263,181,130,253
19179848,381,937,903,261,179,130,263
19180848,378,928,898,260,177,130,267
19181848,373,912,888,262,174,130,265
19182848,367,900,895,263,173,129,269
19183848,363,901,906,262,170,129,272
19184848,359,909,918,264,170,128,276
19185848,357,915,928,264,168,128,276
19186848,358,901,937,263,166,129,274
19187848,362,902,941,262,165,128,274
19188848,368,905,936,262,166,129,273
19189848,370,902,922,261,164,126,272
19190848,369,899,908,259,164,128,272
19191848,367,894,889,257,162,127,270
19192848,363,885,880,255,161,128,271
19193848,355,870,875,255,157,126,271
19194848,354,857,868,254,159,127,267
19195848,352,854,856,255,162,127,268
19196848,358,861,840,253,163,127,267
19197848,370,866,825,252,163,126,268
19198848,376,861,813,251,162,126,267
19199848,375,855,799,253,162,126,266
19200848,370,850,800,254,159,125,265
19201848,369,850,808,254,158,126,264
19202848,365,849,808,252,156,126,263
19203848,362,847,790,251,155,125,262
19204848,357,830,784,250,153,125,261
19205848,352,815,782,249,152,125,260
19206848,349,801,780,248,150,125,261
19207848,346,789,768,247,149,125,259
19208848,342,778,757,245,148,125,259
19209848,338,779,749,245,147,125,259
19210848,334,787,738,243,145,125,259
19211848,330,775,727,241,146,124,258
19212848,327,769,711,241,143,125,258
19213848,323,758,702,240,141,125,257
19214848,322,750,687,239,139,125,257
19215848,324,752,675,238,139,128,257
19216848,324,769,663,238,139,124,255
19217848,323,780,656,233,137,123,255
19218848,331,778,656,238,136,127,254
19219848,335,768,662,236,135,124,256
19220848,330,767,660,234,132,125,259
19221848,342,768,656,236,134,124,261
19222848,354,758,648,234,132,125,264
19223848,361,744,644,232,131,127,261
19224848,360,733,645,231,130,127,261
19225848,363,731,650,230,130,127,260
19226848,358,731,650,229,129,126,260
19227848,354,721,642,228,127,125,260
19228848,349,711,633,228,127,126,259
19229848,346,699,620,225,125,125,259
19230848,343,687,609,226,124,126,260
19231848,335,676,597,226,123,125,266
19232848,333,664,587,225,124,125,267
19233848,330,654,576,225,122,125,266
19234848,326,646,568,231,121,125,265
19235848,322,634,556,238,121,125,267
19236848,318,622,546,246,120,125,272
19237848,315,619,541,252,119,124,272
19238848,308,615,540,257,118,125,269
19239848,308,606,541,275,117,126,267
19240848,305,597,538,289,118,126,267
19241848,303,588,531,291,117,124,267
19242848,299,580,533,289,116,123,267
19243848,297,570,568,291,116,125,265
19244848,294,562,601,291,114,125,265
19245848,291,558,622,292,114,128,263
19246848,289,562,621,291,114,125,263
19247848,283,561,616,289,114,125,263
19248848,283,557,625,286,113,128,262
19249848,281,550,640,284,112,125,263
19250848,278,543,655,284,111,124,261
19251848,275,534,654,285,113,123,260
19252848,273,529,643,287,111,124,259
19253848,270,528,631,290,105,124,258
19254848,267,534,619,288,109,124,257
19255848,267,541,615,285,110,124,256
19256848,272,534,620,286,107,124,256
19257848,277,532,625,289,107,124,256
19258848,278,538,619,288,107,123,254
19259848,278,561,643,285,107,123,250
19260848,278,592,673,284,106,122,253
19261848,279,617,682,284,105,123,257
19262848,278,628,673,283,105,123,252
19263848,277,628,667,281,105,123,252
19264848,299,619,667,281,105,124,251
19265848,344,610,666,281,104,123,251
19266848,381,605,665,281,104,124,250
19267848,396,600,659,279,104,124,251
19268848,394,601,648,278,103,124,250
19269848,405,620,639,275,103,124,250
19270848,418,639,634,276,103,124,250
19271848,422,650,628,277,103,124,249
19272848,417,666,630,277,102,124,247
19273848,411,699,629,276,102,124,250
19274848,407,723,621,277,102,123,254
19275848,406,738,625,277,102,123,258
19276848,410,740,638,277,100,124,260
19277848,415,727,658,278,101,123,259
19278848,414,716,677,277,101,123,263
19279848,411,706,692,276,100,123,258
19280848,407,700,699,274,100,124,257
19281848,402,696,698,273,100,124,257
19282848,396,691,691,271,100,124,256
19283848,391,679,680,268,100,125,256
19284848,388,667,667,266,99,124,258
19285848,381,658,657,265,99,124,264
19286848,376,649,648,264,96,124,270
19287848,372,641,640,261,98,127,270
19288848,366,632,630,259,99,126,274
19289848,362,625,624,259,98,126,274
19290848,359,615,615,256,100,125,271
19291848,354,607,607,256,97,125,271
19292848,348,599,600,252,98,126,269
19293848,345,588,591,252,97,126,269
19294848,341,578,584,251,96,121,268
19295848,337,570,572,249,96,126,267
19296848,333,561,561,247,96,127,266
19297848,329,552,554,247,96,123,265
19298848,326,543,545,242,96,127,265
19299848,321,535,535,244,96,127,264
19300848,318,527,526,244,96,130,261
19301848,315,519,521,245,95,126,263
19302848,315,513,518,242,96,128,260
19303848,307,513,509,241,94,127,262
19304848,304,515,501,240,93,127,262
19305848,301,507,495,238,95,127,261
19306848,299,500,486,238,94,126,261
19307848,295,493,488,237,96,125,254
19308848,293,488,490,236,94,126,259
19309848,290,480,488,235,95,125,258
19310848,286,475,497,233,95,126,258
19311848,291,486,529,235,96,125,257
19312848,296,514,578,232,95,125,257
19313848,299,556,622,231,92,125,257
19314848,300,591,642,230,95,126,257
19315848,297,607,635,229,94,125,257
19316848,294,599,649,229,95,124,254
19317848,292,595,680,230,94,124,254
19318848,294,601,724,231,94,128,254
19319848,306,636,770,232,94,124,252
19320848,303,690,805,230,94,124,252
19321848,306,730,822,234,97,125,252
19322848,314,746,822,233,94,124,252
19323848,323,743,813,234,93,124,252
19324848,330,730,809,232,93,125,251
19325848,334,718,800,235,93,124,251
19326848,328,706,786,231,93,125,251
19327848,325,710,794,233,92,124,250
19328848,321,715,815,232,94,125,251
19329848,321,717,828,232,92,124,250
19330848,320,712,825,233,93,127,245
19331848,316,703,802,234,92,126,248
19332848,312,696,794,233,92,127,248
19333848,314,697,802,239,93,128,249
19334848,323,700,827,244,89,127,249
19335848,325,705,869,244,95,128,248
19336848,320,698,888,244,95,126,248
19337848,320,704,878,248,95,131,247
19338848,317,730,881,246,96,129,246
19339848,315,752,903,248,94,128,247
19340848,313,763,938,247,94,129,246
19341848,310,761,970,244,94,128,246
19342848,318,750,996,242,94,128,245
19343848,319,741,1014,241,94,128,245
19344848,315,741,1019,240,93,129,246
19345848,316,754,1013,239,93,132,248
19346848,313,772,998,239,93,128,254
19347848,314,771,981,237,93,128,258
19348848,315,756,963,236,96,128,257
19349848,312,747,945,235,99,128,256
19350848,306,737,927,234,99,128,259
19351848,305,724,909,233,99,128,262
19352848,303,718,893,233,101,128,263
19353848,299,712,880,232,99,128,262
19354848,296,702,866,232,99,127,262
19355848,293,693,852,230,99,128,264
19356848,290,678,840,230,99,128,260
19357848,288,666,855,229,96,128,260
19358848,284,656,878,228,99,128,259
19359848,282,644,886,227,100,127,258
19360848,279,634,888,227,100,127,258
19361848,278,627,877,226,99,127,257
19362848,274,626,860,225,99,128,256
19363848,271,631,843,226,100,126,256
19364848,268,641,831,224,99,127,257
19365848,266,649,817,224,100,127,255
19366848,265,654,801,222,99,130,256
19367848,263,651,786,221,102,127,254
19368848,262,645,777,221,99,127,253
19369848,260,656,776,220,100,127,252
19370848,259,669,777,219,101,128,252
19371848,256,688,788,220,102,129,251
19372848,254,710,791,219,102,129,252
19373848,254,710,782,218,102,129,251
19374848,256,705,802,217,103,129,252
19375848,259,717,828,217,103,128,250
19376848,259,733,840,217,103,128,250
19377848,257,732,828,218,103,128,248
19378848,255,726,831,218,103,129,244
19379848,266,729,849,217,102,129,247
19380848,283,746,857,217,102,128,247
19381848,294,759,874,214,102,129,246
19382848,295,774,944,217,102,127,247
19383848,293,787,992,219,102,128,247
19384848,291,777,1000,223,102,129,246
19385848,290,776,985,225,101,133,245
19386848,288,786,996,225,103,143,246
19387848,287,792,1036,224,104,156,247
19388848,285,793,1076,224,106,167,247
19389848,284,790,1097,221,114,177,249
19390848,282,780,1122,221,116,185,250
19391848,288,782,1141,220,120,189,252
19392848,296,793,1154,217,122,191,252
19393848,307,789,1160,219,121,190,253
19394848,314,786,1158,217,120,189,251
19395848,319,794,1146,218,122,187,251
19396848,317,798,1126,218,124,186,252
19397848,313,796,1115,217,123,185,254
19398848,310,788,1128,217,122,184,255
19399848,307,795,1201,217,125,181,259
19400848,304,803,1270,217,128,186,258
19401848,304,808,1301,216,137,189,257
19402848,308,811,1287,215,151,189,258
19403848,307,822,1286,215,164,191,255
19404848,306,847,1308,216,179,192,253
19405848,308,875,1333,216,188,189,253
19406848,309,896,1353,217,193,191,251
19407848,306,901,1368,217,195,192,250
19408848,304,890,1377,216,195,196,249
19409848,300,904,1378,216,194,199,251
19410848,297,926,1371,216,195,206,249
19411848,297,951,1357,216,192,214,249
19412848,292,973,1335,214,193,222,248
19413848,291,1006,1307,214,197,232,247
19414848,287,1043,1281,213,208,238,246
19415848,293,1079,1254,213,223,246,246
19416848,300,1100,1228,212,241,250,246
19417848,309,1109,1203,212,262,253,246
19418848,318,1107,1191,212,279,257,245
19419848,327,1101,1221,214,297,257,245
19420848,337,1081,1272,213,309,261,245
19421848,342,1066,1336,212,314,262,247
19422848,339,1052,1389,215,318,261,243
19423848,336,1050,1387,219,320,259,244
19424848,352,1052,1383,223,319,257,243
19425848,381,1048,1415,220,316,252,242
19426848,423,1037,1467,224,314,249,242
19427848,468,1022,1510,226,313,244,242
19428848,506,1008,1541,226,315,245,240
19429848,526,996,1562,226,317,244,239
19430848,526,992,1572,225,325,246,239
19431848,522,1000,1560,225,328,240,238
19432848,538,991,1534,225,333,241,240
19433848,567,985,1502,225,337,241,238
19434848,593,976,1480,229,341,243,239
19435848,610,965,1464,232,343,241,237
19436848,619,955,1451,233,347,243,238
19437848,627,945,1436,236,345,241,240
19438848,631,930,1418,236,346,235,239
19439848,630,913,1399,236,345,238,238
19440848,629,896,1376,238,344,237,240
19441848,626,880,1355,240,344,237,238
19442848,624,864,1336,242,343,233,237
19443848,624,849,1322,241,341,233,238
19444848,620,833,1328,241,337,232,237
19445848,614,819,1356,241,331,230,239
19446848,605,807,1395,240,326,229,237
19447848,596,804,1419,239,321,229,235
19448848,586,803,1418,237,318,227,236
19449848,578,794,1397,237,315,225,236
19450848,576,789,1378,236,312,222,235
19451848,587,777,1374,235,312,221,232
19452848,599,770,1377,234,313,221,236
19453848,605,764,1372,234,312,216,235
19454848,601,750,1364,235,311,214,236
19455848,590,740,1357,233,319,213,234
19456848,581,733,1353,231,319,210,235
19457848,575,726,1347,230,323,209,234
19458848,569,715,1338,230,321,206,233
19459848,562,710,1327,232,322,205,234
19460848,553,698,1311,234,322,203,234
19461848,544,692,1290,237,319,201,234
19462848,536,678,1268,242,319,201,233
19463848,528,667,1243,244,315,205,231
19464848,519,659,1243,242,310,209,234
19465848,512,648,1313,247,307,217,234
19466848,504,644,1416,252,301,221,232
19467848,501,656,1511,260,299,227,233
19468848,499,690,1571,261,299,232,232
19469848,502,725,1567,260,302,233,231
19470848,510,756,1563,258,307,228,232
19471848,520,776,1610,257,309,227,232
19472848,525,776,1672,256,312,224,232
19473848,536,768,1733,260,315,223,232
19474848,545,770,1782,266,316,225,231
19475848,540,797,1813,275,313,231,232
19476848,540,844,1819,279,308,235,233
19477848,554,868,1808,284,309,239,232
19478848,572,863,1783,286,324,245,232
19479848,601,853,1760,284,345,251,227
19480848,618,863,1739,283,373,255,233
19481848,626,857,1722,285,401,258,231
19482848,629,858,1694,292,426,255,234
19483848,621,877,1723,298,438,252,232
19484848,616,895,1792,302,434,254,232
19485848,606,892,1834,305,436,259,232
19486848,596,888,1823,306,456,262,231
19487848,605,915,1800,326,479,266,232
19488848,643,982,1797,349,504,274,234
19489848,701,1065,1797,363,537,283,236
19490848,753,1157,1779,367,571,300,237
19491848,764,1222,1754,364,592,313,236
19492848,760,1280,1747,361,601,324,236
19493848,758,1302,1722,359,598,330,236
19494848,772,1285,1690,358,589,340,238
19495848,785,1297,1673,355,581,348,241
19496848,795,1328,1655,354,585,356,244
19497848,805,1364,1629,352,597,353,245
19498848,817,1382,1598,355,606,352,247
19499848,829,1383,1568,361,620,346,246
19500848,838,1377,1538,366,637,340,246
19501848,846,1364,1525,367,656,336,246
19502848,841,1347,1525,362,679,336,245
19503848,827,1331,1522,359,703,337,245
19504848,811,1319,1512,359,730,354,246
19505848,801,1309,1493,358,764,373,245
19506848,786,1292,1505,356,804,385,243
19507848,770,1275,1527,356,844,403,244
19508848,760,1272,1536,354,887,417,243
19509848,747,1286,1521,351,925,430,243
19510848,734,1312,1495,347,951,442,239
19511848,727,1341,1465,344,972,452,242
19512848,727,1376,1478,341,984,459,246
19513848,729,1393,1513,337,989,462,242
19514848,728,1387,1532,334,990,461,243
19515848,723,1364,1519,330,987,459,240
19516848,717,1372,1497,324,982,458,241
19517848,711,1405,1507,325,975,449,241
19518848,708,1446,1541,321,964,442,241
19519848,711,1483,1582,318,950,434,240
19520848,712,1513,1622,316,937,428,240
19521848,702,1530,1642,315,921,422,240
19522848,690,1532,1644,315,903,418,243
19523848,690,1523,1642,319,886,416,239
19524848,688,1500,1629,322,868,413,239
19525848,684,1475,1604,324,851,413,236
19526848,681,1446,1575,325,835,405,238
19527848,669,1425,1545,324,819,395,238
19528848,658,1401,1512,321,802,393,238
19529848,649,1378,1481,322,787,386,237
19530848,639,1352,1449,329,772,384,237
19531848,630,1327,1420,328,757,376,237
19532848,621,1303,1392,331,744,373,237
19533848,614,1279,1409,332,733,365,237
19534848,604,1261,1515,330,722,361,236
19535848,592,1260,1646,327,711,357,236
19536848,582,1275,1770,326,704,353,236
19537848,572,1310,1836,325,695,349,235
19538848,565,1360,1828,322,685,343,235
19539848,554,1400,1833,319,676,340,235
19540848,556,1418,1888,316,667,335,236
19541848,576,1409,1968,314,656,332,237
19542848,599,1390,2061,311,643,330,239
19543848,611,1400,2117,309,630,328,237
19544848,610,1418,2166,307,619,330,236
19545848,601,1444,2196,304,612,331,236
19546848,593,1480,2201,301,608,329,236
19547848,584,1516,2198,299,605,325,236
19548848,582,1539,2180,297,604,325,235
19549848,578,1528,2145,297,604,324,236
19550848,570,1501,2095,294,603,324,236
19551848,570,1475,2065,296,604,317,235
19552848,574,1443,2030,298,605,314,233
19553848,570,1422,2077,298,603,312,235
19554848,567,1435,2104,298,598,312,235
19555848,558,1462,2145,296,588,313,235
19556848,562,1491,2162,293,578,314,234
19557848,555,1502,2144,291,574,315,234
19558848,546,1486,2097,288,579,315,233
19559848,544,1484,2076,286,587,314,235
19560848,568,1522,2068,285,600,311,239
19561848,601,1593,2028,283,608,309,241
19562848,620,1668,2034,284,611,305,242
19563848,616,1707,2082,286,608,300,241
19564848,620,1710,2104,288,600,297,241
19565848,630,1682,2103,288,591,295,241
19566848,630,1652,2072,286,579,294,240
19567848,621,1632,2023,283,576,294,239
19568848,628,1619,1995,282,578,296,240
19569848,628,1599,1971,281,582,298,240
19570848,632,1589,1965,289,587,298,239
19571848,627,1585,1970,304,592,299,238
19572848,641,1558,1983,326,593,300,238
19573848,656,1553,1994,348,593,301,238
19574848,671,1546,1999,362,588,296,236
19575848,682,1542,1994,365,579,292,236
19576848,691,1539,1984,363,569,288,236
19577848,697,1534,1968,371,558,285,235
19578848,693,1522,1936,387,548,284,236
19579848,689,1505,1896,400,538,282,236
19580848,684,1485,1860,405,529,281,235
19581848,680,1463,1831,408,527,279,235
19582848,677,1448,1804,418,527,277,234
19583848,668,1427,1775,431,532,273,235
19584848,658,1411,1754,440,539,269,234
19585848,647,1403,1737,444,547,273,234
19586848,640,1402,1715,446,550,282,234
19587848,633,1405,1687,445,549,296,235
19588848,628,1412,1654,440,542,316,235
19589848,625,1418,1621,434,531,342,234
19590848,626,1419,1587,429,521,373,233
19591848,625,1402,1555,423,521,409,233
19592848,628,1384,1522,418,531,442,233
19593848,625,1386,1493,414,543,470,233
19594848,615,1379,1464,409,558,490,233
19595848,606,1360,1457,406,577,500,236
19596848,596,1365,1458,405,603,503,232
19597848,586,1387,1474,403,633,497,232
19598848,581,1403,1488,406,665,497,232
19599848,577,1410,1470,411,688,505,232
19600848,571,1402,1441,420,703,529,233
19601848,563,1386,1422,431,700,556,234
19602848,555,1362,1415,442,692,593,233
19603848,550,1362,1427,451,713,633,232
19604848,542,1393,1453,455,752,674,231
19605848,534,1457,1469,453,802,715,233
19606848,527,1525,1464,457,861,750,232
19607848,518,1572,1460,476,930,781,235
19608848,510,1586,1447,501,998,805,232
19609848,502,1574,1432,518,1063,822,231
19610848,494,1546,1416,520,1113,829,231
19611848,488,1526,1391,514,1155,834,230
19612848,482,1512,1363,507,1179,833,230
19613848,469,1483,1347,499,1190,828,231
19614848,466,1456,1340,492,1187,820,232
19615848,459,1443,1323,486,1176,810,231
19616848,452,1441,1300,481,1161,796,232
19617848,445,1447,1318,475,1140,782,232
19618848,439,1456,1351,471,1118,767,232
19619848,437,1458,1379,465,1095,754,232
19620848,433,1464,1424,457,1077,743,232
19621848,426,1475,1469,452,1062,733,228
19622848,421,1471,1492,449,1049,723,229
19623848,415,1459,1470,444,1041,715,231
19624848,412,1443,1457,443,1032,707,230
19625848,420,1436,1472,444,1024,698,229
19626848,428,1413,1480,448,1015,693,229
19627848,425,1413,1476,448,1006,684,230
19628848,421,1416,1459,447,997,673,228
19629848,427,1418,1442,447,985,664,228
19630848,433,1405,1445,444,972,653,228
19631848,430,1386,1447,455,959,645,227
19632848,425,1391,1439,465,945,636,227
19633848,420,1415,1421,466,931,627,228
19634848,415,1464,1401,467,931,619,228
19635848,411,1511,1388,463,935,615,229
19636848,425,1555,1378,454,949,610,228
19637848,437,1589,1369,450,961,603,227
19638848,443,1602,1402,445,977,596,227
19639848,441,1589,1445,439,994,589,227
19640848,436,1559,1472,434,1010,581,227
19641848,436,1532,1472,427,1024,576,228
19642848,439,1503,1449,427,1034,566,227
19643848,440,1472,1432,422,1035,556,227
19644848,429,1444,1443,420,1030,550,227
19645848,436,1431,1456,418,1017,544,227
19646848,449,1416,1464,420,1002,542,227
19647848,458,1391,1465,421,989,535,227
19648848,452,1381,1441,421,980,532,226
19649848,452,1387,1412,420,978,533,228
19650848,456,1399,1385,417,981,527,227
19651848,458,1405,1366,414,980,521,227
19652848,453,1391,1345,418,974,515,227
19653848,449,1367,1318,414,963,505,227
19654848,442,1339,1292,411,945,497,228
19655848,436,1316,1272,405,929,491,226
19656848,433,1291,1252,405,930,489,225
19657848,439,1265,1231,404,945,486,223
19658848,446,1244,1209,398,962,484,221
19659848,450,1222,1184,394,981,480,221
19660848,444,1199,1161,390,1000,474,221
19661848,438,1176,1141,384,1013,468,222
19662848,434,1166,1127,380,1019,461,222
19663848,432,1158,1130,377,1018,455,221
19664848,428,1157,1144,372,1011,447,222
19665848,420,1169,1171,367,1002,440,221
19666848,409,1185,1182,364,989,433,221
19667848,408,1204,1170,360,980,426,222
19668848,403,1221,1156,359,964,420,222
19669848,397,1225,1164,353,946,413,222
19670848,395,1218,1182,350,925,407,221
19671848,388,1201,1199,346,909,402,221
19672848,382,1179,1206,345,895,395,223
19673848,377,1179,1200,339,884,390,224
19674848,371,1192,1188,339,870,386,221
19675848,367,1196,1171,336,864,381,222
19676848,363,1192,1155,333,857,378,222
19677848,356,1181,1141,332,851,373,222
19678848,355,1169,1131,332,846,368,222
19679848,351,1151,1113,333,845,364,222
19680848,346,1129,1091,333,846,359,222
19681848,342,1107,1071,325,846,354,221
19682848,340,1087,1049,327,848,349,220
19683848,333,1066,1031,324,848,344,220
19684848,330,1046,1014,322,849,340,221
19685848,332,1035,996,319,849,334,220
19686848,327,1027,977,315,850,329,220
19687848,326,1009,965,313,851,326,219
19688848,323,996,963,311,847,321,220
19689848,322,979,959,308,844,324,219
19690848,323,961,953,306,840,317,219
19691848,323,943,936,302,835,317,219
19692848,324,925,923,299,825,319,220
19693848,322,906,906,297,812,312,220
19694848,320,891,891,295,799,308,219
19695848,317,875,879,295,785,304,222
19696848,313,859,870,295,770,300,219
19697848,308,844,853,297,755,297,220
19698848,308,829,840,300,743,294,220
19699848,305,814,824,297,732,294,220
19700848,304,800,808,301,720,292,220
19701848,300,788,793,300,710,289,220
19702848,297,794,813,297,701,285,219
19703848,295,801,863,298,692,282,219
19704848,292,810,883,300,686,279,220
19705848,288,818,886,299,680,276,220
19706848,285,820,873,297,673,273,220
19707848,285,809,875,298,668,269,220
19708848,296,805,876,301,666,266,220
19709848,310,810,863,305,666,264,223
19710848,312,835,857,305,666,267,220
19711848,309,866,866,308,667,267,219
19712848,308,886,861,316,669,263,219
19713848,308,899,851,322,673,263,219
19714848,305,889,862,322,677,264,220
19715848,302,873,867,320,690,270,219
19716848,303,860,851,317,700,272,219
19717848,299,852,835,315,714,272,218
19718848,296,852,821,313,723,269,220
19719848,294,853,819,310,730,266,220
19720848,292,849,820,309,732,261,219
19721848,289,839,817,308,727,259,220
19722848,288,826,808,308,716,259,219
19723848,284,816,802,304,708,256,219
19724848,284,804,787,301,709,253,223
19725848,292,794,780,300,712,250,220
19726848,299,783,787,298,712,248,219
19727848,301,777,799,298,708,244,219
19728848,301,775,812,296,705,242,219
19729848,297,773,824,297,697,240,220
19730848,294,761,827,300,689,240,220
19731848,291,755,822,304,681,236,219
19732848,296,746,810,304,665,233,220
19733848,298,733,795,302,652,234,223
19734848,296,728,779,304,640,229,220
19735848,292,723,764,308,628,228,220
19736848,288,711,753,308,617,225,220
19737848,286,704,741,305,608,223,221
19738848,284,696,729,303,598,220,221
19739848,281,691,717,300,590,220,218
19740848,277,684,705,298,584,218,220
19741848,276,675,693,299,579,216,221
19742848,273,663,683,293,572,210,221
19743848,271,651,673,291,566,212,223
19744848,267,646,661,290,563,211,220
19745848,266,633,650,287,567,212,217
19746848,263,623,637,285,568,208,220
19747848,261,613,625,283,578,205,220
19748848,258,597,615,281,589,204,222
19749848,257,592,604,282,600,203,220
19750848,254,583,593,278,609,201,221
19751848,252,573,582,275,614,200,221
19752848,249,561,571,274,612,199,221
19753848,247,555,560,274,607,200,220
19754848,245,547,552,273,598,196,222
19755848,243,537,543,271,585,195,220
19756848,242,528,533,269,576,194,222
19757848,240,520,524,267,565,193,221
19758848,238,512,515,266,551,193,221
19759848,237,504,505,264,546,192,221
19760848,235,497,496,263,535,189,221
19761848,233,489,488,262,525,187,220
19762848,232,482,480,260,518,186,220
19763848,230,474,470,258,517,187,221
19764848,228,468,465,256,518,187,220
19765848,227,460,454,255,520,187,221
19766848,226,454,447,253,522,185,222
19767848,223,450,441,252,523,185,223
19768848,222,441,434,250,523,182,225
19769848,221,430,426,249,520,182,226
19770848,219,428,423,248,513,181,226
19771848,219,421,413,247,503,180,227
19772848,217,417,406,246,498,180,228
19773848,216,410,400,245,509,178,228
19774848,214,403,393,244,511,176,228
19775848,211,398,387,245,517,176,225
19776848,212,392,383,246,524,173,225
19777848,211,388,376,248,527,174,223
19778848,210,381,377,245,523,171,222
19779848,208,378,378,244,517,171,216
19780848,208,373,378,247,509,170,219
19781848,206,369,375,247,502,169,218
19782848,204,364,370,245,494,169,218
19783848,204,359,364,243,488,166,217
19784848,210,354,359,243,477,167,216
19785848,222,349,354,241,468,166,216
19786848,229,352,348,240,460,166,216
19787848,228,360,344,240,451,165,215
19788848,228,375,339,240,444,165,215
19789848,234,392,334,238,439,164,216
19790848,237,405,337,236,429,165,216
19791848,236,406,333,235,422,164,216
19792848,235,403,329,235,417,163,218
19793848,233,400,329,234,410,163,217
19794848,231,401,331,233,404,163,216
19795848,232,401,332,232,398,161,216
19796848,229,397,335,232,391,160,217
19797848,228,396,332,231,385,159,216
19798848,227,406,331,228,379,159,216
19799848,225,418,330,231,372,157,216
19800848,224,431,327,231,365,157,216
19801848,223,450,322,239,359,158,217
19802848,223,475,317,248,354,155,216
19803848,225,491,311,259,348,155,217
19804848,226,500,309,267,342,155,219
19805848,226,498,305,268,337,154,217
19806848,224,497,300,272,331,153,217
19807848,223,491,296,284,330,153,217
19808848,221,484,292,298,337,153,217
19809848,217,476,289,310,349,152,213
19810848,219,469,285,317,366,152,217
19811848,217,463,281,316,382,154,221
19812848,216,456,279,314,396,153,217
19813848,215,450,274,311,407,153,217
19814848,214,444,272,308,407,155,217
19815848,213,437,266,308,401,153,218
19816848,212,432,264,300,395,155,218
19817848,210,427,263,300,394,155,216
19818848,209,422,258,298,390,155,214
19819848,209,417,254,296,385,151,218
19820848,207,411,250,293,377,156,218
19821848,206,406,248,292,371,155,218
19822848,205,401,244,290,367,155,218
19823848,204,394,242,287,365,155,219
19824848,204,390,239,284,368,154,219
19825848,202,384,236,279,372,156,218
19826848,200,379,233,279,384,159,218
19827848,200,374,231,279,392,164,219
19828848,199,370,229,277,398,166,222
19829848,198,366,227,275,396,167,219
19830848,197,361,221,274,397,166,218
19831848,197,358,221,273,393,166,218
19832848,196,354,219,270,394,167,219
19833848,195,351,216,268,388,164,218
19834848,195,341,215,267,383,162,219
19835848,191,342,212,265,378,162,219
19836848,193,337,210,264,372,161,218
19837848,194,332,208,262,365,160,217
19838848,190,329,203,261,360,159,218
19839848,190,325,208,259,355,158,218
19840848,189,321,205,258,348,157,216
19841848,192,317,201,256,343,156,218
19842848,189,314,198,254,337,156,219
19843848,187,313,196,250,332,155,220
19844848,187,309,195,251,326,155,219
19845848,187,304,193,250,319,154,219
19846848,185,300,192,248,315,152,219
19847848,181,297,189,247,310,153,219
19848848,185,293,188,246,305,152,219
19849848,182,290,187,245,300,152,214
19850848,183,288,185,244,295,152,216
19851848,183,284,184,242,292,153,219
19852848,182,282,182,241,287,151,219
19853848,182,278,181,241,282,151,219
19854848,180,276,179,240,279,151,219
19855848,180,273,178,237,273,150,220
19856848,182,271,176,236,269,150,219
19857848,181,269,176,236,265,150,220
19858848,180,265,174,235,261,150,220
19859848,179,264,173,234,258,149,220
19860848,177,261,171,233,255,148,219
19861848,178,258,170,232,249,148,219
19862848,178,256,168,231,246,147,220
19863848,177,254,171,230,243,147,219
19864848,173,250,167,229,242,147,220
19865848,176,249,167,228,235,146,220
19866848,176,246,165,227,233,146,219
19867848,176,245,164,226,229,145,218
19868848,179,243,163,225,226,145,220
19869848,176,240,163,225,222,145,219
19870848,173,238,161,224,218,144,222
19871848,173,236,160,224,217,143,220
19872848,174,235,160,221,213,142,220
19873848,173,231,159,221,209,143,220
19874848,173,231,158,220,209,142,220
19875848,172,227,156,220,207,141,220
19876848,172,227,155,218,203,140,220
19877848,172,226,156,219,201,141,220
19878848,172,225,154,217,198,140,220
19879848,171,224,153,217,196,140,220
19880848,172,218,152,217,193,139,219
19881848,167,219,152,212,191,139,219
19882848,170,215,150,216,188,139,220
19883848,171,216,151,215,186,139,221
19884848,170,216,149,214,183,138,220
19885848,173,213,148,215,182,137,220
19886848,170,212,148,214,182,137,220
19887848,169,211,147,214,180,137,221
19888848,169,212,147,214,179,136,220
19889848,169,208,147,216,178,137,221
19890848,172,207,145,216,172,137,220
19891848,169,204,145,216,173,136,219
19892848,169,204,145,216,169,136,219
19893848,168,203,144,215,172,135,218
19894848,169,202,143,215,172,135,220
19895848,167,201,143,215,173,135,217
19896848,167,199,142,217,175,135,217
19897848,167,199,141,216,176,134,216
19898848,167,198,144,216,176,136,216
19899848,167,196,140,214,177,135,216
19900848,167,195,139,214,176,135,215
19901848,166,195,139,215,175,135,216
19902848,167,194,139,215,173,134,214
19903848,165,193,138,214,171,134,214
19904848,166,188,138,215,171,134,212
19905848,166,190,137,215,168,134,213
19906848,165,189,137,219,167,134,213
19907848,165,189,136,215,163,134,213
19908848,165,188,138,214,164,134,213
19909848,166,187,136,213,162,134,213
19910848,165,186,138,213,161,134,214
19911848,162,185,138,212,158,133,213
19912848,162,185,135,212,157,133,213
19913848,165,184,135,212,156,134,213
19914848,164,187,133,211,155,133,214
19915848,164,183,134,210,154,133,213
19916848,163,183,136,208,152,133,214
19917848,164,181,133,210,150,133,215
19918848,164,181,133,211,149,133,216
19919848,164,181,135,210,149,132,216
19920848,164,181,132,210,147,133,216
19921848,164,182,132,210,145,132,216
19922848,163,183,131,210,145,132,217
19923848,164,181,131,211,143,129,218
19924848,161,180,131,211,142,133,218
19925848,163,180,130,211,140,132,218
19926848,163,181,131,213,140,132,219
19927848,163,180,131,217,139,132,219
19928848,164,179,130,220,137,131,220
19929848,164,184,130,222,136,132,221
19930848,164,186,130,222,136,131,221
19931848,163,184,131,227,136,131,223
19932848,163,180,130,232,137,130,225
19933848,163,183,128,237,132,132,223
19934848,162,183,130,239,134,131,222
19935848,163,182,130,237,133,130,222
19936848,163,182,130,240,133,134,224
19937848,163,181,127,240,132,131,224
19938848,163,179,129,247,132,133,225
19939848,163,183,129,250,130,131,226
19940848,163,180,133,253,127,130,226
19941848,163,178,142,252,129,131,227
19942848,162,178,150,252,129,130,227
19943848,163,174,152,252,128,130,228
19944848,163,177,152,253,129,125,229
19945848,162,176,153,262,128,129,230
19946848,162,177,161,272,126,130,233
19947848,168,179,170,279,126,129,234
19948848,173,180,179,283,126,130,234
19949848,177,180,185,281,124,129,235
19950848,177,181,187,285,124,130,236
19951848,174,184,185,292,124,130,236
19952848,175,186,184,296,122,130,236
19953848,176,189,182,304,122,130,237
19954848,176,188,182,308,122,128,237
19955848,176,189,183,310,121,128,236
19956848,174,188,177,309,121,129,239
19957848,174,187,177,306,119,129,240
19958848,173,187,176,303,119,130,239
19959848,173,185,171,301,119,129,239
19960848,173,184,173,298,118,129,240
19961848,172,184,171,297,117,128,242
19962848,173,184,170,298,117,130,242
19963848,173,183,169,297,116,128,242
19964848,172,182,168,295,117,132,243
19965848,169,182,168,295,120,132,242
19966848,171,180,166,295,121,128,244
19967848,170,180,164,301,122,129,245
19968848,171,180,163,310,122,129,244
19969848,170,179,162,317,124,129,247
19970848,170,182,162,322,128,129,250
19971848,169,178,161,320,130,128,247
19972848,170,178,160,325,133,128,249
19973848,169,177,159,330,135,127,253
19974848,170,177,157,331,135,128,251
19975848,169,176,157,335,136,127,252
19976848,168,175,155,338,133,127,253
19977848,169,175,154,340,137,128,253
19978848,169,174,154,340,138,127,255
19979848,168,169,153,338,136,128,255
19980848,168,173,153,332,136,128,257
19981848,168,173,152,329,135,128,256
19982848,168,172,151,327,134,128,257
19983848,167,171,150,324,133,128,259
19984848,167,171,149,321,128,128,263
19985848,167,170,149,317,131,128,261
19986848,167,173,149,315,129,128,261
19987848,166,169,149,312,129,128,263
19988848,168,169,147,312,129,128,264
19989848,166,164,147,311,130,127,264
19990848,166,169,146,309,132,127,266
19991848,166,167,145,306,134,125,267
19992848,165,167,145,301,137,126,267
19993848,166,167,144,309,139,129,269
19994848,165,167,144,320,141,125,270
19995848,162,167,143,332,143,131,271
19996848,165,166,141,333,142,128,272
19997848,165,166,142,341,144,128,273
19998848,164,165,139,358,146,128,274
19999848,165,165,141,367,143,124,274
20000848,164,165,140,370,141,128,275
20001848,168,165,139,364,142,125,276
20002848,164,164,139,368,141,128,277
20003848,165,164,139,372,140,128,277
20004848,160,164,139,373,139,127,278
20005848,164,164,138,367,138,128,278
20006848,167,165,137,365,137,128,279
20007848,164,162,137,362,139,128,279
20008848,164,163,138,358,145,128,280
20009848,164,165,136,356,153,129,280
20010848,163,162,136,354,164,129,280
20011848,163,162,136,356,173,129,281
20012848,163,162,138,353,181,129,282
20013848,164,163,135,351,185,128,281
20014848,165,161,134,354,184,129,281
20015848,163,161,135,353,182,129,282
20016848,164,161,134,352,185,128,283
20017848,161,160,137,354,194,127,283
20018848,164,160,133,356,201,129,286
20019848,163,156,135,356,211,128,284
20020848,163,162,133,352,219,129,284
20021848,161,160,133,350,226,130,283
20022848,163,159,132,347,231,128,282
20023848,160,160,135,347,239,128,283
20024848,162,161,137,350,245,128,283
20025848,163,160,138,350,243,127,282
20026848,163,159,139,347,242,128,284
20027848,162,164,139,344,250,131,284
20028848,162,160,139,346,273,135,283
20029848,162,161,138,353,307,141,284
20030848,162,160,139,354,346,145,285
20031848,162,160,138,353,382,148,284
20032848,162,159,135,347,406,149,286
20033848,162,159,137,348,424,144,286
20034848,165,159,136,348,430,148,288
20035848,162,159,137,348,424,148,286
20036848,163,160,136,346,423,149,288
20037848,164,159,135,344,427,150,288
20038848,167,160,136,342,439,151,287
20039848,168,162,135,339,455,150,286
20040848,167,162,136,335,467,151,285
20041848,167,162,135,332,476,150,287
20042848,169,162,134,329,495,149,283
20043848,168,162,134,326,524,148,285
20044848,170,163,133,324,554,148,280
20045848,170,163,134,323,580,147,284
20046848,171,163,133,323,599,147,284
20047848,172,163,133,324,610,151,284
20048848,172,163,132,323,614,148,283
20049848,172,163,128,329,616,147,282
20050848,173,162,132,329,614,147,282
20051848,172,162,132,343,608,147,282
20052848,172,162,131,352,598,146,281
20053848,172,161,128,350,587,145,281
20054848,171,162,131,347,577,145,280
20055848,167,161,131,349,565,143,280
20056848,171,161,131,348,555,145,280
20057848,171,161,129,349,545,144,280
20058848,168,161,130,351,534,144,280
20059848,171,160,129,354,524,144,279
20060848,170,160,130,353,515,143,279
20061848,171,160,130,349,506,142,279
20062848,172,161,130,354,495,141,278
20063848,171,160,129,356,488,141,278
20064848,170,160,128,356,480,140,277
20065848,170,160,129,354,470,140,277
20066848,170,160,129,351,463,140,278
20067848,170,160,128,351,453,139,277
20068848,170,160,128,354,449,138,276
20069848,169,159,128,359,439,138,277
20070848,169,159,128,359,433,138,276
20071848,169,160,129,361,425,138,276
20072848,169,160,128,377,418,137,275
20073848,169,160,127,385,412,137,275
20074848,169,159,127,382,407,137,273
20075848,168,159,127,380,403,138,273
20076848,168,159,127,375,402,137,271
20077848,168,158,128,373,398,137,272
20078848,170,157,127,369,392,137,270
20079848,168,157,128,367,382,137,270
20080848,167,158,129,371,378,136,268
20081848,168,158,130,383,373,137,268
20082848,169,158,130,396,371,136,267
20083848,168,157,131,400,368,136,267
20084848,172,157,133,406,361,136,267
20085848,172,157,128,426,355,136,266
20086848,172,157,130,436,352,137,266
20087848,171,158,129,436,352,137,265
20088848,172,157,129,431,349,137,264
20089848,172,157,129,426,357,140,264
20090848,172,157,129,421,385,151,264
20091848,171,157,129,417,429,154,264
20092848,171,157,129,415,472,159,264
20093848,172,156,129,415,505,160,263
20094848,172,157,128,418,514,163,263
20095848,173,157,131,418,507,166,263
20096848,173,158,128,414,499,165,261
20097848,175,156,128,422,490,165,260
20098848,176,157,128,426,482,170,259
20099848,176,158,128,422,485,170,261
20100848,180,159,128,420,499,171,258
20101848,176,158,126,415,517,174,256
20102848,177,159,127,410,539,178,256
20103848,177,158,126,405,568,180,255
20104848,177,157,123,402,598,181,253
20105848,177,157,127,402,623,180,252
20106848,176,157,126,402,642,176,253
20107848,177,157,126,399,653,178,250
20108848,177,157,125,396,658,174,249
20109848,177,157,125,393,659,176,248
20110848,176,158,128,388,654,174,248
20111848,176,157,125,384,646,173,247
20112848,176,157,124,382,638,172,247
20113848,175,153,121,388,628,172,246
20114848,174,157,125,395,618,171,245
20115848,174,157,124,395,607,170,248
20116848,174,156,125,395,597,169,244
20117848,174,156,124,404,586,168,242
20118848,174,156,124,413,575,167,242
20119848,173,156,124,415,566,166,241
20120848,173,155,124,413,554,164,241
20121848,172,156,123,413,544,165,239
20122848,172,156,123,411,535,164,239
20123848,172,155,124,407,524,163,236
20124848,171,155,122,405,515,162,236
20125848,171,155,124,405,504,162,234
20126848,171,155,126,409,494,160,234
20127848,172,155,128,408,486,160,232
20128848,168,155,128,401,477,159,232
20129848,171,155,127,400,471,158,233
20130848,170,155,128,400,459,154,231
20131848,171,155,127,396,451,157,230
20132848,170,155,127,391,444,155,230
20133848,170,155,126,388,436,155,230
20134848,169,155,124,383,429,154,229
20135848,168,155,126,379,422,154,229
20136848,169,154,125,379,415,152,228
20137848,168,154,126,374,408,152,229
20138848,168,154,126,380,401,152,228
20139848,166,154,126,381,394,151,227
20140848,168,154,129,386,388,150,227
20141848,168,154,125,383,380,150,226
20142848,166,153,125,386,375,150,225
20143848,167,154,125,382,368,149,225
20144848,167,154,124,385,362,152,224
20145848,167,149,125,381,356,148,223
20146848,166,154,125,377,351,146,222
20147848,167,154,125,376,345,148,220
20148848,167,154,124,369,339,146,219
20149848,168,154,122,367,334,147,217
20150848,166,154,124,372,327,147,219
20151848,166,154,124,373,323,147,217
20152848,166,154,124,370,321,145,217
20153848,165,154,123,370,313,143,216
20154848,167,154,124,367,308,146,217
20155848,166,154,123,366,305,145,216
20156848,165,156,131,362,305,145,216
20157848,165,156,139,363,307,145,216
20158848,165,156,147,362,308,144,215
20159848,168,156,149,359,308,145,214
20160848,165,156,148,356,305,143,212
20161848,165,155,148,353,305,144,214
20162848,168,155,152,348,299,145,215
20163848,178,158,160,345,296,143,214
20164848,188,164,166,345,293,141,215
20165848,198,168,170,339,290,141,214
20166848,203,168,172,335,285,145,214
20167848,204,169,171,332,285,146,212
20168848,202,177,169,329,291,147,211
20169848,203,180,169,326,297,149,211
20170848,200,185,168,325,303,149,211
20171848,200,186,167,321,302,148,212
20172848,200,186,167,319,298,149,211
20173848,199,185,166,318,296,152,211
20174848,198,184,167,314,300,152,212
20175848,194,183,163,315,307,151,212
20176848,196,183,163,314,310,150,212
20177848,196,185,161,311,312,150,212
20178848,195,181,161,319,314,150,213
20179848,194,180,159,327,313,148,212
20180848,193,180,157,327,309,147,213
20181848,192,180,157,342,305,147,213
20182848,190,179,156,357,299,147,213
20183848,190,179,155,358,295,146,214
20184848,189,176,154,356,290,146,213
20185848,188,178,154,355,286,146,214
20186848,187,177,153,357,281,145,214
20187848,188,176,152,352,277,145,214
20188848,187,176,152,348,274,144,211
20189848,186,176,151,346,271,145,214
20190848,185,175,150,343,274,145,213
20191848,185,173,150,339,276,145,214
20192848,185,173,149,337,278,144,215
20193848,184,172,148,334,283,142,215
20194848,182,171,147,331,286,145,218
20195848,183,174,147,328,284,150,211
20196848,183,171,147,326,283,148,215
20197848,182,171,145,325,281,147,214
20198848,182,170,145,325,279,147,215
20199848,181,170,147,323,277,146,215
20200848,180,169,144,321,273,146,216
20201848,181,169,145,324,267,147,214
20202848,180,168,142,337,264,146,215
20203848,180,169,143,342,260,147,216
20204848,179,169,142,340,256,146,216
20205848,178,169,141,349,252,146,216
20206848,178,171,141,360,252,145,216
20207848,180,172,140,369,253,145,216
20208848,177,174,140,368,259,145,217
20209848,178,175,140,368,261,145,216
20210848,177,175,139,364,259,144,214
20211848,176,173,139,363,257,144,216
20212848,175,172,138,362,254,144,218
20213848,176,172,138,367,248,142,216
20214848,177,172,137,369,247,142,217
20215848,174,172,137,370,243,142,216
20216848,174,172,136,370,241,141,216
20217848,173,170,136,378,237,141,217
20218848,173,170,136,381,233,140,217
20219848,173,171,132,379,231,140,217
20220848,173,171,135,375,228,140,217
20221848,171,170,135,372,225,141,217
20222848,172,169,136,368,219,140,217
20223848,171,172,134,359,219,139,218
20224848,171,175,134,360,217,139,217
20225848,170,175,134,356,216,138,218
20226848,170,174,133,355,212,138,215
20227848,171,175,133,350,209,137,219
20228848,170,173,133,346,207,138,218
20229848,170,173,132,343,212,137,218
20230848,170,172,133,340,227,141,218
20231848,169,172,132,338,244,142,218
20232848,169,171,131,332,265,144,218
20233848,169,171,133,327,276,147,218
20234848,169,171,131,328,274,145,218
20235848,169,170,128,324,276,145,217
20236848,168,170,130,322,289,144,221
20237848,168,168,130,321,305,143,220
20238848,168,169,129,317,320,145,217
20239848,168,168,130,318,333,144,216
20240848,168,168,129,312,340,143,215
20241848,167,167,129,312,345,142,218
20242848,167,167,131,312,347,143,216
20243848,167,167,129,314,345,143,216
20244848,167,167,128,312,343,141,216
20245848,167,166,129,313,339,143,215
20246848,167,166,132,308,335,141,216
20247848,167,166,128,306,330,140,216
20248848,166,165,127,304,326,140,215
20249848,166,165,128,301,322,140,216
20250848,166,165,128,299,316,139,216
20251848,165,168,127,298,312,139,216
20252848,165,166,128,298,309,141,217
20253848,166,165,127,293,302,138,217
20254848,166,166,128,292,299,139,218
20255848,165,166,127,291,299,138,218
20256848,165,165,127,289,305,137,218
20257848,165,165,127,291,313,139,218
20258848,165,164,126,294,314,137,217
20259848,166,165,127,296,313,140,217
20260848,165,162,126,299,309,137,217
20261848,164,163,126,307,305,137,217
20262848,165,164,126,309,299,137,217
20263848,164,165,125,307,295,136,217
20264848,165,163,126,306,292,136,219
20265848,165,163,127,307,287,136,220
20266848,164,163,128,309,282,136,219
20267848,164,158,129,312,279,135,219
20268848,164,164,133,313,279,135,219
20269848,164,165,129,310,278,135,219
20270848,165,167,130,319,276,137,220
20271848,164,168,136,329,276,137,220
20272848,165,169,155,331,276,137,220
20273848,164,176,184,328,278,136,225
20274848,165,189,218,326,283,136,231
20275848,164,206,247,324,289,136,243
20276848,163,223,266,321,291,136,260
20277848,165,236,272,317,290,131,262
20278848,164,239,267,314,290,135,264
20279848,165,241,271,311,288,135,265
20280848,164,240,283,309,288,135,265
20281848,164,244,300,306,284,135,267
20282848,165,251,320,304,282,135,269
20283848,164,261,337,301,278,136,268
20284848,164,273,348,299,274,136,267
20285848,167,283,362,297,270,136,267
20286848,167,292,366,295,265,136,266
20287848,167,296,368,292,262,135,266
20288848,169,300,372,290,258,136,264
20289848,172,301,366,289,255,135,264
20290848,179,298,363,288,250,134,264
20291848,181,298,360,283,246,135,263
20292848,182,293,356,282,243,134,261
20293848,183,291,351,281,239,134,260
20294848,182,285,347,279,236,134,260
20295848,182,285,341,277,233,136,259
20296848,181,284,336,279,229,133,258
20297848,181,279,330,274,224,133,258
20298848,181,276,326,272,225,133,258
20299848,180,273,322,273,219,133,254
20300848,182,271,316,272,217,133,252
20301848,179,267,312,272,216,134,251
20302848,181,266,308,269,217,132,250
20303848,178,263,304,267,220,137,249
20304848,178,267,300,266,223,141,250
20305848,177,262,296,264,223,144,249
20306848,179,263,292,263,223,145,253
20307848,177,264,290,261,222,150,248
20308848,176,261,285,259,222,151,251
20309848,176,259,281,257,220,151,247
20310848,175,257,278,256,217,150,247
20311848,175,256,275,255,214,150,246
20312848,175,251,271,252,211,149,245
20313848,175,252,272,250,209,148,244
20314848,173,256,269,249,207,148,244
20315848,174,261,266,248,205,148,244
20316848,173,262,264,247,206,148,244
20317848,173,269,261,246,205,147,246
20318848,173,272,259,244,203,146,247
20319848,172,274,259,243,201,146,255
20320848,172,272,258,243,200,146,267
20321848,171,269,257,241,193,144,270
20322848,173,267,255,240,195,144,271
20323848,171,264,253,239,193,143,274
20324848,170,262,251,233,193,142,268
20325848,168,263,248,236,191,143,269
20326848,170,261,245,236,188,145,277
20327848,170,264,242,234,187,148,286
20328848,169,268,240,233,185,148,289
20329848,170,269,237,233,183,148,292
20330848,170,268,234,231,181,149,297
20331848,169,266,231,231,180,151,297
20332848,169,263,229,230,181,151,303
20333848,169,262,226,229,185,151,305
20334848,169,259,224,229,195,151,305
20335848,169,257,221,228,208,151,303
20336848,168,249,219,228,220,152,301
20337848,168,252,219,227,231,154,301
20338848,167,251,220,228,239,154,300
20339848,167,256,219,225,243,150,299
20340848,167,275,225,221,244,148,298
20341848,167,308,244,222,244,148,300
20342848,167,341,267,222,243,148,305
20343848,166,357,280,222,240,149,299
20344848,168,364,284,222,238,147,298
20345848,165,362,281,220,234,147,298
20346848,167,357,281,221,232,148,296
20347848,166,354,288,219,225,148,295
20348848,164,350,293,219,226,147,296
20349848,166,346,299,219,222,148,297
20350848,166,345,305,219,218,148,294
20351848,166,352,306,220,216,151,294
20352848,166,366,302,218,213,151,293
20353848,165,384,300,218,211,148,292
20354848,167,397,298,216,207,147,290
20355848,164,419,298,216,206,147,286
20356848,167,447,302,216,204,147,289
20357848,167,474,305,219,200,146,289
20358848,167,501,302,217,198,150,288
20359848,170,517,300,216,196,147,285
20360848,174,521,294,215,193,148,285
20361848,183,516,294,215,191,145,282
20362848,192,509,302,215,188,147,280
20363848,196,500,310,215,186,148,280
20364848,196,496,323,214,184,148,279
20365848,195,486,335,214,182,146,278
20366848,197,479,342,213,180,147,278
20367848,193,472,342,213,177,148,276
20368848,194,466,337,208,175,150,277
20369848,194,458,339,215,174,148,276
20370848,196,452,348,212,172,148,276
20371848,196,445,360,211,172,147,277
20372848,200,439,372,211,167,147,275
20373848,205,436,379,211,166,147,273
20374848,208,442,380,213,164,147,271
20375848,208,440,381,213,163,147,268
20376848,210,440,378,216,161,146,269
20377848,217,445,375,215,160,146,269
20378848,230,446,371,217,157,144,267
20379848,240,452,366,219,153,145,267
20380848,248,455,360,214,154,145,266
20381848,249,454,356,218,152,146,266
20382848,251,453,352,215,154,148,266
20383848,249,442,347,214,154,148,264
20384848,251,436,342,212,152,153,264
20385848,247,430,338,213,154,150,263
20386848,244,423,332,213,155,150,262
20387848,243,418,328,211,153,149,261
20388848,242,412,323,212,154,150,262
20389848,240,406,318,211,150,148,261
20390848,238,401,314,211,149,149,265
20391848,236,394,310,211,148,149,264
20392848,235,389,305,210,144,149,264
20393848,233,384,301,207,146,154,266
20394848,232,378,298,210,145,147,260
20395848,230,374,294,209,145,155,262
20396848,228,371,289,209,144,154,263
20397848,227,368,285,208,142,155,265
20398848,226,365,282,209,140,155,266
20399848,224,360,288,208,140,154,267
20400848,223,358,294,207,140,155,262
20401848,221,366,306,206,141,159,269
20402848,221,392,322,207,143,163,267
20403848,218,413,338,206,146,168,266
20404848,217,435,344,206,148,174,264
20405848,216,449,344,205,148,182,264
20406848,221,450,338,207,149,187,264
20407848,230,444,333,211,150,194,262
20408848,241,449,343,208,150,199,261
20409848,249,462,351,209,149,201,260
20410848,255,494,357,208,148,203,258
20411848,255,529,359,210,147,202,259
20412848,253,563,365,210,147,200,258
20413848,251,592,368,216,145,199,259
20414848,249,606,362,216,140,199,257
20415848,248,615,372,216,144,199,259
20416848,245,633,394,216,147,202,262
20417848,244,646,417,216,149,204,277
20418848,246,647,440,215,150,211,277
20419848,255,638,460,214,153,211,286
20420848,263,627,484,213,158,212,292
20421848,272,616,500,213,162,213,291
20422848,275,607,510,214,164,215,290
20423848,275,595,514,212,164,216,287
20424848,277,593,511,212,163,216,286
20425848,274,621,507,211,162,216,285
20426848,273,658,500,212,160,216,283
20427848,268,687,493,213,156,215,283
20428848,267,710,492,214,157,218,282
20429848,266,726,490,213,155,213,280
20430848,272,738,485,213,154,212,278
20431848,277,745,485,216,152,213,277
20432848,274,734,482,211,151,212,276
20433848,277,728,476,211,149,212,275
20434848,273,741,468,211,149,210,274
20435848,269,755,459,210,147,211,274
20436848,270,763,453,211,146,213,272
20437848,267,758,445,210,144,211,272
20438848,267,760,437,210,143,211,271
20439848,271,762,431,209,141,209,270
20440848,276,763,425,210,141,208,272
20441848,280,763,417,208,139,205,268
20442848,284,757,411,208,138,202,271
20443848,288,749,405,207,136,201,269
20444848,292,741,401,210,136,203,269
20445848,291,728,395,207,136,199,268
20446848,288,715,388,203,134,198,267
20447848,285,704,382,206,133,197,271
20448848,282,695,379,206,133,196,272
20449848,280,688,376,209,131,195,271
20450848,276,680,367,207,131,193,276
20451848,276,674,364,210,131,192,276
20452848,272,664,359,208,129,190,272
20453848,269,654,354,212,131,187,279
20454848,268,644,348,211,130,188,284
20455848,267,636,343,209,129,187,288
20456848,268,625,345,210,130,185,290
20457848,267,617,348,209,135,186,291
20458848,265,613,350,209,146,189,292
20459848,263,621,346,208,163,191,292
20460848,262,632,341,206,182,193,295
20461848,261,650,340,208,202,193,293
20462848,260,658,342,207,227,190,294
20463848,256,660,347,209,237,195,296
20464848,259,652,350,211,252,195,298
20465848,275,664,356,211,250,194,298
20466848,286,684,355,211,261,193,299
20467848,293,707,354,211,279,192,300
20468848,293,725,369,210,293,191,301
20469848,291,739,389,210,305,190,299
20470848,288,754,407,209,312,186,299
20471848,287,763,425,209,316,187,298
20472848,285,762,432,208,317,189,296
20473848,285,752,438,208,316,186,295
20474848,283,742,435,210,311,185,293
20475848,281,745,431,211,308,184,292
20476848,279,756,432,211,301,183,291
20477848,278,764,435,211,297,181,289
20478848,277,770,432,211,296,180,289
20479848,278,780,450,211,290,179,287
20480848,276,778,456,210,283,178,288
20481848,273,764,452,210,279,176,285
20482848,271,763,451,211,276,177,285
20483848,267,765,456,212,271,174,283
20484848,272,763,471,214,267,172,284
20485848,280,766,489,217,264,173,284
20486848,286,770,509,218,261,171,283
20487848,284,770,529,219,259,171,282
20488848,282,769,536,220,257,169,282
20489848,280,760,523,219,256,175,280
20490848,274,769,532,220,252,180,281
20491848,275,779,542,221,260,185,280
20492848,271,779,549,216,264,193,285
20493848,270,777,548,219,266,194,283
20494848,271,771,540,220,267,196,281
20495848,270,758,535,221,267,198,279
20496848,267,755,535,219,263,196,277
20497848,265,753,534,219,259,195,278
20498848,267,758,527,219,255,194,278
20499848,261,763,526,218,251,194,278
20500848,261,760,530,217,248,196,278
20501848,263,752,533,219,245,198,276
20502848,267,738,538,220,240,201,279
20503848,267,726,540,219,237,205,279
20504848,262,717,537,218,237,207,279
20505848,262,708,529,218,240,207,280
20506848,262,696,520,217,243,209,280
20507848,259,688,517,216,243,211,282
20508848,258,682,511,216,243,213,283
20509848,255,678,518,216,241,214,282
20510848,254,672,549,216,237,214,284
20511848,256,666,573,215,234,213,285
20512848,256,655,586,215,231,211,285
20513848,261,644,589,216,228,211,285
20514848,265,634,580,216,225,209,287
20515848,265,625,582,216,222,209,288
20516848,265,622,587,217,219,206,289
20517848,262,615,595,218,215,209,291
20518848,260,614,592,218,213,209,292
20519848,259,613,584,217,210,206,292
20520848,260,620,577,219,207,204,291
20521848,259,641,581,218,204,203,289
20522848,256,679,588,218,202,201,291
20523848,254,711,585,218,199,199,292
20524848,251,732,581,219,198,199,291
20525848,249,755,571,217,195,196,290
20526848,249,773,592,218,193,195,292
20527848,247,780,641,216,191,194,289
20528848,245,777,709,220,186,193,290
20529848,244,764,766,216,186,192,288
20530848,243,771,791,218,184,192,288
20531848,244,803,784,218,182,189,285
20532848,244,845,800,219,180,189,284
20533848,241,889,833,218,179,187,288
20534848,238,917,868,219,177,186,283
20535848,237,932,898,224,175,185,281
20536848,235,933,919,225,173,185,280
20537848,234,932,938,225,172,185,278
20538848,233,934,951,227,171,182,278
20539848,231,938,956,230,168,181,279
20540848,231,940,956,230,166,179,288
20541848,228,934,950,231,166,178,307
20542848,228,925,941,233,166,178,326
20543848,230,909,930,233,165,175,340
20544848,236,897,913,231,165,175,343
20545848,244,884,894,232,163,174,348
20546848,251,869,874,232,162,173,349
20547848,257,853,860,231,161,171,359
20548848,256,844,844,232,159,171,374
20549848,255,837,828,232,160,169,380
20550848,253,826,811,230,165,169,387
20551848,251,815,796,229,173,170,397
20552848,248,803,781,229,185,173,400
20553848,247,789,770,227,200,173,399
20554848,245,778,755,227,220,175,400
20555848,240,768,745,227,243,179,401
20556848,243,761,740,229,268,181,402
20557848,238,756,734,230,285,181,402
20558848,237,751,723,227,286,180,398
20559848,236,749,710,227,282,179,401
20560848,235,748,705,228,289,182,402
20561848,233,744,696,227,305,185,400
20562848,232,741,685,227,324,187,395
20563848,231,740,685,225,343,189,393
20564848,229,740,687,228,359,190,386
20565848,227,730,682,226,370,188,388
20566848,228,716,671,225,374,187,386
20567848,225,706,660,225,371,186,387
20568848,224,694,649,225,370,184,388
20569848,221,693,637,223,365,183,389
20570848,221,699,625,222,359,181,388
20571848,220,708,616,221,354,181,387
20572848,221,709,613,221,348,179,386
20573848,221,701,605,220,343,178,385
20574848,221,693,598,221,337,177,383
20575848,220,681,588,219,332,176,384
20576848,218,674,579,219,328,174,383
20577848,219,663,575,219,323,173,383
20578848,219,656,598,218,321,171,380
20579848,216,655,624,218,319,171,385
20580848,216,652,640,217,319,171,386
20581848,215,660,639,217,318,170,386
20582848,215,675,630,217,317,170,386
20583848,215,687,637,216,313,173,386
20584848,214,686,666,213,309,171,386
20585848,217,679,701,215,307,170,385
20586848,221,667,729,215,300,169,389
20587848,226,665,746,215,297,168,387
20588848,226,672,747,215,297,167,387
20589848,224,676,741,215,296,166,386
20590848,222,683,729,215,294,166,385
20591848,221,695,715,214,287,164,385
20592848,224,701,703,212,284,164,379
20593848,227,698,689,215,280,163,378
20594848,233,693,676,217,275,163,373
20595848,235,682,663,218,271,161,372
20596848,237,676,654,217,266,161,372
20597848,239,676,644,218,263,160,371
20598848,240,675,632,218,260,160,368
20599848,240,671,623,218,256,160,369
20600848,240,666,614,216,251,158,363
20601848,238,656,600,217,248,157,361
20602848,238,653,588,217,244,156,359
20603848,239,655,578,217,241,154,357
20604848,238,652,568,217,235,155,354
20605848,236,653,557,217,233,155,355
20606848,235,643,550,217,231,154,352
20607848,234,640,544,215,228,153,351
20608848,231,644,540,215,225,150,350
20609848,230,655,536,213,223,152,347
20610848,228,662,531,214,219,151,344
20611848,227,662,523,214,218,150,343
20612848,226,656,515,214,216,150,340
20613848,223,645,504,213,213,150,336
20614848,221,637,497,212,211,148,332
20615848,220,635,488,212,209,148,331
20616848,219,638,482,214,205,151,329
20617848,218,648,475,211,202,147,328
20618848,217,654,469,212,198,147,326
20619848,216,652,461,211,199,148,325
20620848,214,648,454,210,197,145,323
20621848,213,643,452,210,195,145,322
20622848,212,633,466,209,192,143,320
20623848,211,626,484,210,189,144,318
20624848,212,621,507,211,190,145,317
20625848,209,624,525,215,187,144,320
20626848,207,632,521,221,189,144,318
20627848,206,639,514,219,189,144,318
20628848,210,644,527,222,194,147,318
20629848,222,643,532,226,203,152,318
20630848,240,636,526,230,216,156,319
20631848,250,627,535,231,231,160,319
20632848,250,619,548,230,247,164,320
20633848,248,634,556,233,264,165,321
20634848,247,653,554,229,283,166,320
20635848,249,653,550,228,292,165,317
20636848,257,647,553,229,292,166,315
20637848,266,645,567,229,287,167,314
20638848,271,644,592,228,289,167,314
20639848,271,645,618,228,297,167,312
20640848,268,641,636,226,311,170,311
20641848,266,631,641,227,329,168,314
20642848,262,622,641,226,345,170,305
20643848,267,615,642,224,357,172,312
20644848,265,614,632,224,364,173,307
20645848,273,624,625,224,367,169,306
20646848,285,632,615,222,362,172,302
20647848,297,636,607,221,358,172,300
20648848,299,631,596,220,351,171,299
20649848,299,618,585,221,344,171,298
20650848,297,611,580,220,340,170,296
20651848,295,608,573,220,333,169,296
20652848,292,611,587,218,329,168,294
20653848,289,613,611,218,324,166,294
20654848,286,615,633,217,319,166,296
20655848,283,612,644,217,314,161,296
20656848,280,608,644,216,310,163,298
20657848,281,601,643,216,304,164,298
20658848,287,591,665,219,300,163,298
20659848,289,584,688,215,295,163,306
20660848,285,580,695,214,292,163,321
20661848,283,571,684,214,286,169,335
20662848,287,572,695,214,279,166,344
20663848,290,570,720,213,277,165,344
20664848,289,561,748,212,274,164,359
20665848,287,556,776,212,269,159,365
20666848,283,549,796,211,266,166,365
20667848,281,542,805,211,262,166,361
20668848,278,533,805,213,259,168,359
20669848,276,521,802,210,253,170,357
20670848,277,516,794,210,250,171,355
20671848,272,508,784,210,244,171,354
20672848,267,500,768,209,245,171,350
20673848,266,493,753,211,242,175,348
20674848,264,495,738,209,239,172,346
20675848,261,498,725,210,236,173,344
20676848,260,496,710,212,235,173,345
20677848,257,494,698,210,234,172,346
20678848,255,488,683,210,231,171,344
20679848,252,483,672,208,229,170,343
20680848,250,476,662,212,226,169,341
20681848,249,474,655,215,223,170,340
20682848,246,478,648,216,220,171,338
20683848,247,479,643,216,216,175,336
20684848,240,472,636,215,214,180,335
20685848,241,468,633,217,212,189,331
20686848,238,465,636,218,210,192,330
20687848,237,468,645,218,210,198,328
20688848,234,476,652,217,210,205,325
20689848,234,487,657,215,212,211,324
20690848,236,501,650,217,213,216,322
20691848,240,514,640,216,211,217,320
20692848,246,512,634,215,211,214,317
20693848,244,504,620,215,213,215,314
20694848,246,499,633,215,212,215,313
20695848,257,502,682,210,213,219,312
20696848,265,523,732,211,211,227,311
20697848,270,557,753,213,208,232,309
20698848,277,590,743,213,204,233,308
20699848,274,614,738,212,201,242,307
20700848,274,618,763,211,200,244,306
20701848,281,612,804,211,197,247,304
20702848,288,603,820,211,195,250,303
20703848,290,590,813,210,193,251,301
20704848,287,593,839,210,190,255,300
20705848,285,586,861,210,188,260,300
20706848,281,579,873,209,189,262,300
20707848,276,584,864,210,196,263,297
20708848,283,602,857,209,202,262,295
20709848,296,618,877,209,212,262,294
20710848,302,637,901,208,218,257,292
20711848,298,657,924,207,221,252,293
20712848,304,676,949,207,227,252,291
20713848,310,681,970,208,231,248,290
20714848,316,673,972,206,237,245,289
20715848,326,670,954,207,243,242,291
20716848,335,665,935,207,246,240,287
20717848,339,658,922,206,248,236,287
20718848,344,664,945,206,249,235,285
20719848,351,667,978,205,248,229,283
20720848,359,663,990,204,248,230,283
20721848,360,656,979,204,242,228,281
20722848,357,648,986,203,239,227,281
20723848,357,643,1022,203,234,225,282
20724848,361,640,1064,204,231,224,282
20725848,366,635,1098,202,229,223,281
20726848,369,633,1108,202,226,224,281
20727848,376,638,1097,203,223,223,279
20728848,379,629,1075,202,220,222,278
20729848,376,626,1055,202,221,222,277
20730848,372,627,1034,203,215,221,276
20731848,369,633,1014,203,212,221,276
20732848,365,635,998,202,212,221,270
20733848,360,630,980,205,206,220,275
20734848,355,633,961,211,203,220,274
20735848,350,634,941,215,202,218,274
20736848,351,629,923,219,199,217,273
20737848,350,627,905,221,197,215,272
20738848,346,621,892,228,197,213,269
20739848,339,609,875,232,198,211,269
20740848,335,603,860,230,196,212,266
20741848,331,603,846,227,195,207,266
20742848,326,610,829,231,192,205,267
20743848,320,616,819,231,190,203,267
20744848,321,622,810,229,189,202,266
20745848,316,622,795,229,187,200,265
20746848,313,611,783,227,187,198,263
20747848,309,607,768,227,184,197,262
20748848,307,602,751,226,182,196,262
20749848,309,611,743,225,182,196,261
20750848,313,631,735,224,182,196,260
20751848,317,661,729,224,183,196,259
20752848,320,682,726,224,183,198,257
20753848,317,681,722,223,182,197,255
20754848,315,672,711,221,184,199,252
20755848,319,661,700,220,186,200,253
20756848,327,652,689,220,194,199,252
20757848,339,651,676,217,203,197,251
20758848,351,652,664,219,214,196,251
20759848,362,642,657,218,228,195,251
20760848,366,635,669,221,238,195,251
20761848,362,646,760,219,242,194,251
20762848,358,691,877,218,241,190,252
20763848,353,744,970,218,238,191,249
20764848,349,792,1005,218,234,193,251
20765848,347,822,1005,217,237,194,252
20766848,365,844,991,219,249,197,257
20767848,412,857,1008,217,262,193,261
20768848,477,854,1014,217,276,193,266
20769848,536,842,1010,216,292,192,269
20770848,568,852,1005,215,312,189,269
20771848,570,850,1006,215,330,188,268
20772848,565,841,1014,215,346,186,268
20773848,576,827,1001,214,362,185,267
20774848,588,816,1011,211,376,187,267
20775848,605,830,1059,214,389,183,261
20776848,618,861,1134,212,397,182,266
20777848,629,895,1204,212,403,182,264
20778848,638,925,1249,212,409,179,264
20779848,651,953,1263,211,412,179,264
20780848,667,961,1261,211,414,183,263
20781848,680,947,1253,211,414,195,262
20782848,689,950,1249,210,412,200,261
20783848,686,973,1231,210,409,210,261
20784848,677,995,1218,210,404,222,260
20785848,665,1012,1229,209,397,234,261
20786848,666,1036,1242,208,390,247,259
20787848,667,1068,1248,208,383,264,259
20788848,671,1091,1232,208,376,275,258
20789848,667,1097,1210,207,371,283,256
20790848,661,1085,1199,206,369,292,255
20791848,656,1100,1197,206,374,304,253
20792848,643,1135,1195,206,385,311,252
20793848,635,1194,1198,207,400,317,249
20794848,626,1266,1195,205,419,324,251
20795848,618,1322,1183,206,444,325,251
20796848,624,1349,1171,206,468,322,250
20797848,636,1364,1166,205,489,317,250
20798848,646,1363,1162,206,506,322,249
20799848,650,1349,1154,208,513,335,249
20800848,649,1321,1140,205,508,343,249
20801848,646,1297,1122,205,501,360,249
20802848,640,1275,1100,205,513,377,249
20803848,635,1247,1077,204,545,396,249
20804848,628,1223,1057,203,597,417,248
20805848,621,1199,1036,203,659,435,248
20806848,612,1179,1027,204,732,450,247
20807848,604,1176,1027,203,815,460,244
20808848,595,1180,1030,202,895,470,247
20809848,584,1182,1027,203,964,476,246
20810848,577,1178,1016,206,1019,479,248
20811848,570,1164,1000,212,1062,476,247
20812848,572,1145,982,219,1088,473,246
20813848,583,1128,964,220,1110,467,242
20814848,599,1118,952,221,1118,457,246
20815848,605,1104,939,227,1119,452,246
20816848,598,1105,921,231,1114,444,243
20817848,589,1098,905,236,1106,438,244
20818848,583,1080,888,240,1094,429,244
20819848,575,1060,871,241,1081,425,243
20820848,566,1051,855,240,1066,419,242
20821848,557,1046,839,239,1051,412,244
20822848,550,1037,822,238,1033,406,243
20823848,547,1022,807,236,1013,400,243
20824848,541,1006,795,236,994,394,245
20825848,534,984,781,235,974,388,242
20826848,524,967,795,234,955,384,248
20827848,517,954,880,233,938,379,259
20828848,509,945,998,232,921,375,257
20829848,501,930,1093,231,906,372,258
20830848,493,916,1137,230,890,370,258
20831848,486,899,1132,230,875,364,260
20832848,486,889,1138,229,862,359,263
20833848,502,885,1160,229,851,355,268
20834848,521,877,1190,229,838,349,271
20835848,529,864,1229,228,826,344,274
20836848,522,856,1248,228,813,340,275
20837848,518,847,1251,226,797,334,276
20838848,515,879,1351,226,786,330,275
20839848,508,943,1466,225,773,325,274
20840848,502,1026,1517,225,757,321,274
20841848,495,1111,1508,224,742,316,273
20842848,488,1179,1549,222,728,312,272
20843848,497,1210,1617,222,717,307,271
20844848,533,1201,1699,222,709,303,268
20845848,571,1220,1762,221,698,299,267
20846848,588,1252,1797,220,690,296,267
20847848,590,1308,1796,219,682,293,270
20848848,622,1345,1768,219,674,292,267
20849848,658,1336,1733,218,665,286,265
20850848,684,1339,1713,218,655,282,265
20851848,695,1389,1720,221,643,281,264
20852848,689,1441,1721,226,631,275,262
20853848,680,1489,1720,230,620,272,263
20854848,686,1506,1712,231,611,269,263
20855848,710,1495,1683,232,605,267,264
20856848,738,1523,1663,238,597,264,265
20857848,771,1561,1664,241,592,263,264
20858848,774,1612,1682,240,590,261,263
20859848,770,1648,1708,238,586,261,262
20860848,789,1671,1736,239,585,259,261
20861848,810,1663,1764,237,580,258,256
20862848,829,1641,1785,236,576,258,261
20863848,842,1636,1806,235,570,252,260
20864848,856,1645,1819,235,564,256,260
20865848,864,1646,1813,233,552,262,259
20866848,860,1631,1793,233,544,274,258
20867848,845,1612,1766,233,539,290,258
20868848,830,1592,1730,233,540,309,257
20869848,816,1575,1701,234,550,331,257
20870848,801,1569,1685,238,564,354,257
20871848,791,1560,1680,240,581,371,256
20872848,774,1547,1668,240,593,382,255
20873848,759,1523,1642,240,599,386,256
20874848,747,1495,1616,240,602,387,255
20875848,734,1467,1586,239,597,378,253
20876848,724,1442,1561,236,588,382,252
20877848,724,1416,1545,236,577,390,252
20878848,723,1398,1522,236,572,398,253
20879848,717,1394,1532,237,574,406,255
20880848,706,1402,1613,237,578,416,256
20881848,694,1430,1714,236,594,423,256
20882848,683,1462,1769,236,612,429,256
20883848,681,1481,1760,236,634,438,258
20884848,695,1500,1742,234,657,449,258
20885848,707,1508,1763,236,679,459,254
20886848,732,1504,1804,238,702,468,260
20887848,767,1483,1838,238,721,474,261
20888848,792,1469,1857,241,739,476,261
20889848,793,1478,1862,239,752,478,260
20890848,785,1492,1857,238,766,475,260
20891848,793,1486,1849,238,775,475,260
20892848,807,1478,1837,236,783,471,259
20893848,819,1468,1819,237,791,467,259
20894848,824,1447,1803,238,796,464,259
20895848,824,1425,1770,236,794,457,257
20896848,826,1399,1780,235,789,451,257
20897848,824,1371,1863,234,779,447,257
20898848,818,1346,1942,233,765,444,255
20899848,811,1322,1994,232,750,442,256
20900848,798,1294,2018,231,736,438,258
20901848,782,1273,1996,231,721,434,261
20902848,772,1260,1974,230,707,431,265
20903848,785,1250,1979,228,693,426,270
20904848,807,1230,1981,228,681,422,276
20905848,832,1220,1974,227,667,417,279
20906848,856,1250,1955,227,657,412,281
20907848,870,1319,1918,225,647,408,287
20908848,883,1418,1903,224,641,403,291
20909848,892,1529,1884,224,636,397,295
20910848,894,1620,1866,224,632,392,296
20911848,891,1661,1862,224,630,385,298
20912848,876,1656,1854,221,627,379,298
20913848,867,1632,1826,222,623,374,298
20914848,857,1650,1812,223,615,368,296
20915848,857,1691,1827,224,616,364,295
20916848,872,1736,1855,222,612,359,293
20917848,893,1746,1890,222,607,354,291
20918848,912,1729,1927,222,600,348,292
20919848,923,1700,1960,222,592,343,290
20920848,927,1666,1971,222,582,339,290
20921848,928,1656,1954,220,571,334,289
20922848,925,1672,1920,220,561,329,287
20923848,920,1692,1890,219,551,324,287
20924848,904,1714,1875,218,541,319,285
20925848,884,1734,1850,218,532,315,284
20926848,872,1767,1820,216,522,312,283
20927848,866,1816,1787,216,513,310,283
20928848,866,1846,1750,216,502,303,282
20929848,857,1849,1725,217,496,299,283
20930848,842,1826,1716,217,492,295,283
20931848,827,1790,1721,218,491,291,281
20932848,812,1756,1758,217,489,289,281
20933848,798,1728,1845,217,488,284,279
20934848,787,1709,1928,217,486,281,279
20935848,783,1717,1984,216,481,279,278
20936848,791,1723,1984,217,473,284,278
20937848,807,1725,1948,217,464,291,277
20938848,819,1738,1945,216,457,299,277
20939848,829,1757,1955,217,452,309,276
20940848,836,1744,1972,217,453,323,277
20941848,832,1714,1987,212,458,340,278
20942848,817,1708,1959,217,466,353,278
20943848,823,1725,1949,220,476,369,277
20944848,848,1763,1957,219,495,387,276
20945848,878,1818,1959,222,528,400,276
20946848,903,1873,1985,227,565,411,275
20947848,914,1909,1983,227,604,426,274
20948848,915,1928,1957,227,644,443,273
20949848,905,1935,1965,227,674,454,272
20950848,887,1932,1996,228,694,456,272
20951848,871,1930,2055,229,700,454,270
20952848,863,1936,2086,229,692,450,270
20953848,856,1947,2103,232,687,450,271
20954848,850,1964,2058,237,700,459,273
20955848,845,1974,2012,243,722,479,274
20956848,840,1954,2008,245,748,493,277
20957848,831,1932,2034,244,775,513,278
20958848,823,1919,2096,246,799,533,279
20959848,807,1913,2134,252,824,556,280
20960848,793,1932,2168,258,855,582,280
20961848,781,1959,2171,258,891,608,277
20962848,770,1976,2153,258,932,632,281
20963848,765,1984,2119,256,969,653,279
20964848,755,1984,2075,263,1004,671,277
20965848,742,1974,2024,262,1039,686,275
20966848,729,1957,1992,268,1068,695,272
20967848,716,1922,1974,275,1092,697,272
20968848,706,1883,1962,274,1107,706,269
20969848,694,1858,1946,273,1115,700,267
20970848,682,1834,1925,271,1116,695,266
20971848,670,1804,1897,271,1108,688,264
20972848,661,1769,1867,272,1095,681,265
20973848,648,1740,1833,272,1079,664,261
20974848,637,1712,1803,270,1059,653,264
20975848,628,1682,1766,268,1036,644,262
20976848,619,1651,1729,267,1015,634,261
20977848,609,1617,1693,266,995,625,261
20978848,599,1583,1667,264,979,616,261
20979848,588,1568,1652,263,964,608,262
20980848,580,1555,1638,261,951,597,262
20981848,573,1553,1635,260,941,591,263
20982848,567,1570,1638,258,938,584,264
20983848,557,1596,1644,257,930,577,265
20984848,549,1620,1649,257,932,567,266
20985848,540,1620,1638,256,931,564,268
20986848,541,1604,1634,255,927,560,271
20987848,553,1576,1645,258,919,555,279
20988848,565,1551,1684,253,917,554,279
20989848,568,1522,1736,255,909,554,285
20990848,563,1491,1763,257,897,556,287
20991848,555,1469,1757,255,879,562,289
20992848,547,1474,1727,259,861,559,291
20993848,537,1492,1716,261,845,560,290
20994848,542,1502,1744,269,828,556,292
20995848,560,1520,1792,270,811,550,291
20996848,562,1553,1798,268,796,545,290
20997848,559,1574,1770,266,780,538,290
20998848,572,1558,1767,266,764,530,289
20999848,582,1546,1745,264,750,520,288
21000848,579,1569,1721,264,736,512,286
21001848,571,1594,1727,264,723,504,284
21002848,563,1619,1763,264,706,498,287
21003848,554,1629,1802,263,693,489,283
21004848,547,1604,1815,262,689,489,281
21005848,540,1581,1799,260,703,496,281
21006848,534,1555,1762,259,731,499,280
21007848,531,1530,1734,257,765,502,280
21008848,523,1505,1721,256,796,500,280
21009848,520,1479,1749,257,828,497,282
21010848,524,1456,1787,258,860,492,281
21011848,538,1440,1850,260,885,487,284
21012848,558,1424,1909,262,900,481,286
21013848,572,1400,1925,266,897,485,287
21014848,570,1375,1896,270,880,494,290
21015848,562,1355,1897,269,865,501,292
21016848,561,1345,1941,269,863,508,292
21017848,553,1355,2002,269,880,515,292
21018848,555,1358,2087,270,908,522,291
21019848,576,1363,2140,272,949,528,288
21020848,598,1371,2171,276,994,534,285
21021848,609,1369,2192,281,1039,541,284
21022848,614,1365,2204,283,1076,544,282
21023848,611,1348,2193,282,1105,546,282
21024848,608,1322,2158,280,1124,541,282
21025848,605,1298,2117,278,1133,537,280
21026848,605,1281,2085,276,1136,532,280
21027848,598,1258,2067,275,1133,523,274
21028848,591,1240,2035,273,1123,515,277
21029848,582,1224,2007,271,1107,504,275
21030848,572,1206,1988,265,1087,496,274
21031848,565,1202,1975,270,1066,485,273
21032848,554,1206,1960,266,1045,482,271
21033848,547,1208,1939,264,1023,475,269
21034848,540,1207,1911,262,1003,469,268
21035848,534,1205,1875,261,989,463,267
21036848,526,1205,1836,261,975,456,267
21037848,520,1211,1798,265,967,450,267
21038848,512,1225,1760,270,959,444,266
21039848,504,1245,1734,277,949,440,267
21040848,497,1266,1716,280,942,437,269
21041848,490,1282,1708,282,939,436,270
21042848,486,1280,1701,280,941,435,271
21043848,483,1262,1684,287,947,435,273
21044848,488,1258,1651,286,950,436,275
21045848,501,1284,1627,287,956,435,276
21046848,513,1329,1610,285,966,435,278
21047848,514,1366,1594,283,975,432,279
21048848,506,1381,1575,286,982,428,279
21049848,497,1379,1561,292,984,422,278
21050848,493,1364,1542,293,981,421,277
21051848,488,1343,1524,291,976,414,276
21052848,485,1318,1507,292,967,407,275
21053848,483,1301,1492,296,953,402,273
21054848,477,1288,1471,295,935,393,270
21055848,470,1275,1442,301,916,390,269
21056848,463,1258,1415,314,901,385,268
21057848,455,1236,1394,331,887,379,267
21058848,452,1212,1371,350,877,374,266
21059848,447,1195,1347,355,870,368,266
21060848,442,1184,1328,352,862,363,265
21061848,442,1172,1331,349,852,361,265
21062848,443,1163,1338,347,838,365,266
21063848,445,1152,1355,343,821,371,265
21064848,439,1132,1386,341,809,378,266
21065848,435,1123,1452,337,803,380,267
21066848,442,1136,1511,335,802,394,267
21067848,460,1165,1537,336,803,392,265
21068848,481,1202,1516,337,808,394,273
21069848,502,1226,1494,336,812,390,276
21070848,519,1217,1486,333,820,385,278
21071848,526,1206,1494,330,826,379,279
21072848,527,1187,1517,328,830,377,280
21073848,519,1174,1541,325,831,378,280
21074848,517,1189,1563,324,825,383,277
21075848,534,1222,1570,320,811,387,276
21076848,552,1255,1564,317,796,389,276
21077848,561,1275,1562,314,789,393,278
21078848,558,1301,1549,311,785,395,274
21079848,547,1323,1520,313,783,395,273
21080848,539,1352,1489,314,778,393,272
21081848,533,1365,1466,313,768,393,271
21082848,524,1346,1440,313,757,389,269
21083848,521,1332,1419,313,745,383,267
21084848,529,1335,1402,317,733,377,266
21085848,536,1349,1391,324,719,371,265
21086848,539,1348,1381,333,705,367,264
21087848,538,1335,1362,340,692,365,265
21088848,537,1319,1337,341,678,358,260
21089848,532,1300,1311,339,667,357,260
21090848,524,1286,1298,344,660,357,259
21091848,516,1281,1317,357,654,362,259
21092848,507,1289,1365,369,651,360,260
21093848,507,1311,1441,379,655,365,261
21094848,503,1340,1521,384,662,372,262
21095848,498,1358,1555,382,670,379,263
21096848,494,1350,1537,380,679,388,264
21097848,490,1330,1519,376,693,393,265
21098848,489,1332,1510,376,708,396,266
21099848,487,1347,1514,369,730,399,267
21100848,483,1367,1520,372,745,404,268
21101848,480,1372,1521,378,765,408,266
21102848,476,1355,1518,390,788,411,267
21103848,471,1331,1515,404,808,409,267
21104848,465,1318,1520,416,822,406,268
21105848,458,1306,1527,422,835,403,266
21106848,457,1337,1537,421,840,395,268
21107848,449,1367,1537,421,840,392,265
21108848,445,1360,1531,434,834,390,264
21109848,449,1344,1515,450,819,394,264
21110848,452,1338,1498,458,808,401,264
21111848,454,1332,1477,458,804,407,263
21112848,448,1313,1457,454,804,409,264
21113848,442,1287,1428,448,809,409,261
21114848,437,1264,1398,443,820,408,261
21115848,427,1253,1369,440,835,407,260
21116848,425,1242,1346,441,850,403,259
21117848,419,1229,1322,436,857,399,259
21118848,415,1220,1298,429,859,391,258
21119848,410,1211,1276,423,855,388,258
21120848,406,1200,1254,422,845,382,255
21121848,400,1186,1235,417,830,376,255
21122848,395,1170,1212,410,815,372,254
21123848,389,1152,1192,404,797,369,252
21124848,385,1133,1190,401,787,364,253
21125848,379,1115,1203,396,778,362,254
21126848,374,1094,1215,392,775,359,253
21127848,370,1076,1209,389,773,356,253
21128848,364,1056,1189,386,775,355,250
21129848,360,1043,1167,379,777,351,256
21130848,358,1030,1157,375,781,346,256
21131848,373,1011,1156,372,785,347,260
21132848,391,999,1145,366,788,345,261
21133848,394,1005,1124,362,787,341,262
21134848,390,1023,1102,359,783,341,262
21135848,388,1026,1087,358,775,340,261
21136848,386,1010,1074,357,763,339,262
21137848,379,992,1058,352,754,337,262
21138848,381,986,1043,353,745,335,262
21139848,386,991,1025,350,735,334,261
21140848,385,993,999,347,724,332,262
21141848,379,997,984,343,713,329,260
21142848,381,997,964,343,703,326,259
21143848,384,987,947,337,694,325,258
21144848,382,970,929,334,685,320,255
21145848,383,960,943,331,679,318,253
21146848,381,956,974,328,672,316,251
21147848,383,954,1000,324,665,312,250
21148848,389,949,1014,322,659,311,249
21149848,396,947,1001,322,652,308,249
21150848,400,939,998,315,647,305,249
21151848,394,923,1014,313,641,299,248
21152848,390,907,1036,311,634,297,247
21153848,385,891,1052,307,626,297,248
21154848,381,877,1052,308,621,295,251
21155848,374,879,1039,303,617,293,247
21156848,371,896,1019,302,611,290,246
21157848,365,923,1000,296,607,287,246
21158848,369,958,981,294,603,283,245
21159848,374,988,961,293,601,280,245
21160848,375,999,944,290,598,279,246
21161848,371,999,931,289,595,276,245
21162848,365,988,915,285,591,276,245
21163848,364,983,897,283,587,270,244
21164848,365,1009,881,282,584,270,243
21165848,361,1046,874,281,583,268,242
21166848,358,1081,868,282,578,267,241
21167848,360,1119,857,282,574,267,241
21168848,361,1148,847,280,569,266,241
21169848,356,1159,841,278,564,265,241
21170848,353,1153,840,276,559,263,242
21171848,342,1134,839,276,555,260,241
21172848,351,1117,828,280,550,260,239
21173848,353,1107,813,279,543,257,238
21174848,354,1090,799,280,537,253,242
21175848,353,1072,785,278,530,251,239
21176848,352,1052,774,276,522,248,239
21177848,347,1033,769,276,514,244,238
21178848,344,1012,761,275,505,245,238
