19798576,-0.01,-0.00,-0.00,-0.31,0.43,9.82,-0.01,0.00,0.00,-0.08,0.74,10.05,-0.01,-0.00,-0.00,-0.25,0.42,10.05,-0.01,-0.00,0.00,0.12,0.35,9.88,-0.01,0.01,0.00,1.93,0.37,9.60,0.0000,0.0000,0.00
19812290,-0.01,-0.00,-0.00,-0.29,0.42,9.60,-0.01,-0.00,-0.00,-0.05,0.68,9.65,-0.01,0.00,0.00,-0.24,0.38,9.78,-0.01,0.00,-0.00,0.11,0.22,9.97,-0.01,-0.00,0.00,2.02,0.16,9.76,0.0000,0.0000,0.00
19822290,0.01,-0.00,-0.00,-0.29,0.43,9.92,0.01,0.00,-0.00,-0.07,0.74,9.84,0.01,-0.00,-0.00,-0.29,0.50,9.77,0.01,-0.00,0.00,0.07,0.35,9.85,0.01,-0.01,-0.00,1.94,0.32,9.71,0.0000,0.0000,0.00
19832290,0.02,-0.00,-0.00,-0.25,0.50,9.93,0.02,0.00,-0.00,-0.03,0.73,9.87,0.02,0.00,0.00,-0.16,0.45,9.82,0.02,0.00,-0.00,0.14,0.28,9.96,0.02,-0.00,-0.00,2.02,0.23,9.61,0.0000,0.0000,0.00
19842290,0.02,-0.00,-0.00,-0.28,0.52,9.97,0.02,0.00,-0.00,-0.01,0.78,9.90,0.02,0.00,-0.00,-0.18,0.53,9.87,0.02,0.00,-0.00,0.13,0.37,9.95,0.02,0.01,-0.01,2.00,0.39,9.80,0.0000,0.0000,0.00
19852290,-0.00,-0.00,0.00,-0.29,0.52,9.92,-0.00,-0.00,0.00,-0.06,0.80,9.93,0.00,-0.00,0.00,-0.24,0.53,10.02,0.00,-0.00,0.00,0.13,0.36,10.09,0.00,-0.00,-0.00,2.02,0.35,9.95,0.0000,0.0000,0.00
19862290,-0.01,0.00,0.00,-0.26,0.52,9.93,-0.01,0.00,-0.00,-0.05,0.75,9.98,-0.02,-0.00,-0.00,-0.23,0.49,9.99,-0.01,-0.00,0.00,0.16,0.35,9.94,-0.02,-0.01,0.00,1.98,0.35,9.67,0.0000,0.0000,0.00
19872290,-0.01,-0.00,-0.00,-0.28,0.48,9.85,-0.01,0.00,-0.00,-0.05,0.76,9.84,-0.01,0.00,0.00,-0.16,0.46,9.85,-0.01,0.00,0.00,0.13,0.31,9.88,-0.01,0.00,0.00,1.95,0.26,9.54,0.0000,0.0000,0.00
19882290,0.00,0.00,-0.00,-0.25,0.51,9.81,0.01,-0.00,0.00,-0.06,0.78,9.78,0.00,0.00,0.00,-0.23,0.47,9.82,0.01,0.00,0.00,0.12,0.37,9.93,0.00,0.00,-0.00,1.95,0.33,9.81,0.0000,0.0000,0.00
19892290,0.01,-0.00,0.00,-0.29,0.51,9.84,0.01,-0.00,-0.00,-0.06,0.77,9.83,0.01,0.00,0.00,-0.18,0.45,9.83,0.01,-0.00,0.00,0.15,0.38,9.93,0.01,-0.00,-0.00,1.98,0.28,9.75,0.0000,0.0000,0.00
19902290,0.00,0.00,-0.00,-0.25,0.52,10.02,0.01,-0.00,-0.00,-0.05,0.80,9.96,0.00,0.00,0.00,-0.20,0.48,9.90,0.01,-0.00,0.00,0.15,0.35,9.95,0.00,0.00,-0.00,1.98,0.35,9.66,0.0000,0.0000,0.00
19912290,-0.00,-0.00,0.00,-0.26,0.52,9.93,-0.01,0.00,0.00,-0.03,0.80,9.95,-0.01,0.00,0.00,-0.23,0.52,9.93,-0.01,0.00,-0.00,0.15,0.35,9.97,-0.00,0.01,-0.00,2.01,0.33,9.79,0.0000,0.0000,0.00
19922290,-0.01,0.00,0.00,-0.28,0.51,9.80,-0.01,-0.00,0.00,-0.05,0.73,9.84,-0.01,0.00,-0.00,-0.20,0.46,9.82,-0.01,-0.00,-0.00,0.13,0.35,9.94,-0.01,-0.00,0.00,1.99,0.30,9.83,0.0000,0.0000,0.00
19932290,-0.01,-0.00,-0.00,-0.29,0.51,9.83,-0.01,0.00,-0.00,-0.05,0.79,9.82,-0.01,-0.00,0.00,-0.20,0.47,9.84,-0.01,-0.00,-0.00,0.13,0.34,9.91,-0.01,-0.00,0.00,1.94,0.29,9.61,0.0000,0.0000,0.00
19942290,0.00,-0.00,0.00,-0.27,0.49,9.88,0.00,-0.00,-0.00,-0.05,0.74,9.91,0.00,0.00,-0.00,-0.21,0.46,9.90,0.00,0.00,-0.00,0.14,0.31,9.89,0.00,0.00,-0.00,1.98,0.28,9.63,0.0000,0.0000,0.00
19952290,0.01,0.00,-0.00,-0.26,0.48,9.85,0.00,0.00,0.00,-0.03,0.80,9.83,0.01,0.00,-0.00,-0.18,0.49,9.84,0.01,0.00,0.00,0.12,0.35,9.93,0.01,0.00,-0.00,2.01,0.32,9.75,0.0000,0.0000,0.00
19962290,0.00,0.00,-0.00,-0.25,0.50,9.86,-0.00,-0.00,-0.00,-0.05,0.77,9.85,0.00,-0.00,-0.00,-0.17,0.52,9.87,0.00,-0.00,-0.00,0.14,0.36,10.00,-0.00,-0.00,-0.00,1.97,0.29,9.75,0.0000,0.0000,0.00
19972290,-0.01,-0.00,-0.00,-0.26,0.54,9.94,-0.00,-0.00,0.00,-0.03,0.77,9.96,-0.00,-0.00,-0.00,-0.22,0.49,9.94,-0.01,-0.00,0.00,0.14,0.34,9.92,-0.00,-0.00,0.00,1.96,0.30,9.65,0.0000,0.0000,0.00
19982290,-0.01,-0.00,-0.00,-0.30,0.52,9.90,-0.00,-0.00,0.00,-0.05,0.76,9.86,-0.00,0.00,0.00,-0.21,0.50,9.89,-0.01,0.00,0.00,0.09,0.35,9.94,-0.01,0.00,0.00,1.99,0.27,9.67,0.0000,0.0000,0.00
19992290,-0.00,-0.00,-0.00,-0.27,0.49,9.82,0.00,0.00,0.00,-0.06,0.77,9.78,0.00,0.00,0.00,-0.22,0.45,9.83,-0.00,0.00,0.00,0.15,0.32,9.91,-0.00,0.00,-0.00,2.01,0.33,9.82,0.0000,0.0000,0.00
20002290,0.00,0.00,0.00,-0.27,0.47,9.84,0.00,-0.00,0.00,-0.04,0.75,9.83,0.00,-0.00,0.00,-0.21,0.46,9.83,0.00,-0.00,0.00,0.15,0.36,9.89,0.00,-0.00,-0.00,2.02,0.27,9.72,0.0000,0.0000,0.00
20012290,0.00,-0.00,-0.00,-0.23,0.49,9.96,0.00,0.00,-0.00,-0.05,0.76,9.91,0.00,-0.00,-0.00,-0.21,0.50,9.91,0.00,-0.00,-0.00,0.15,0.36,9.92,0.00,-0.00,-0.00,1.98,0.32,9.65,0.0000,0.0000,0.00
20022290,-0.00,-0.00,-0.00,-0.28,0.49,9.90,0.00,0.00,-0.00,-0.06,0.79,9.87,0.00,-0.00,-0.00,-0.19,0.49,9.88,0.00,0.00,-0.00,0.10,0.37,9.92,0.00,0.01,0.00,1.99,0.28,9.74,0.0000,0.0000,0.00
20032290,-0.01,0.00,0.00,-0.30,0.53,9.85,-0.01,0.00,0.00,-0.05,0.78,9.87,-0.01,0.00,0.00,-0.20,0.49,9.80,-0.01,-0.00,0.00,0.14,0.38,9.94,-0.01,-0.00,0.00,2.01,0.30,9.81,0.0000,0.0000,0.00
20042290,-0.01,0.00,-0.00,-0.24,0.51,9.86,-0.01,0.00,-0.00,-0.04,0.78,9.86,-0.01,-0.00,-0.00,-0.21,0.50,9.88,-0.01,-0.00,-0.00,0.10,0.35,9.92,-0.01,-0.00,0.00,1.99,0.30,9.66,0.0000,0.0000,0.00
20052290,-0.00,0.00,-0.00,-0.24,0.52,9.89,-0.00,0.00,0.00,-0.04,0.75,9.83,0.00,-0.00,-0.00,-0.17,0.48,9.84,0.00,0.00,0.00,0.13,0.34,9.86,0.00,0.00,0.00,1.97,0.29,9.60,0.0000,0.0000,0.00
20062290,0.00,-0.00,0.00,-0.26,0.48,9.81,0.01,-0.00,-0.00,-0.04,0.75,9.78,0.01,0.00,-0.00,-0.20,0.50,9.81,0.00,0.00,0.00,0.12,0.35,9.92,0.00,0.00,-0.00,2.00,0.32,9.77,0.0000,0.0000,0.00
20072290,0.00,0.00,-0.00,-0.26,0.45,9.86,0.00,-0.00,-0.00,-0.04,0.77,9.84,0.00,-0.00,0.00,-0.20,0.48,9.82,0.00,-0.00,0.00,0.13,0.35,9.93,0.00,-0.00,0.00,2.00,0.30,9.74,0.0000,0.0000,0.00
20082290,0.00,-0.00,-0.00,-0.27,0.50,9.91,-0.00,-0.00,-0.00,-0.05,0.77,9.89,0.00,-0.00,-0.00,-0.20,0.49,9.91,-0.00,-0.00,0.00,0.16,0.33,9.94,-0.00,-0.00,-0.00,1.96,0.34,9.65,0.0000,0.0000,0.00
20092290,-0.00,-0.00,-0.00,-0.31,0.48,9.90,-0.00,0.00,0.00,-0.06,0.76,9.86,0.00,-0.00,-0.00,-0.22,0.49,9.86,-0.00,0.00,-0.00,0.13,0.33,9.93,-0.00,0.00,-0.00,1.96,0.32,9.69,0.0000,0.0000,0.00
20102290,0.00,-0.00,-0.00,-0.29,0.51,9.79,0.00,-0.00,0.00,-0.03,0.71,9.81,0.00,-0.00,0.00,-0.20,0.46,9.80,-0.00,-0.00,0.00,0.17,0.36,9.91,0.00,0.00,0.00,1.98,0.28,9.76,0.0000,0.0000,0.00
20112290,0.00,0.00,0.00,-0.30,0.50,9.85,0.00,-0.00,0.00,-0.06,0.74,9.83,0.00,-0.00,0.00,-0.23,0.41,9.88,0.00,-0.00,-0.00,0.13,0.32,9.85,0.00,-0.00,-0.00,1.97,0.28,9.69,0.0000,0.0000,0.00
20122290,0.00,0.00,0.00,-0.26,0.48,9.93,0.00,0.00,-0.00,-0.06,0.76,9.85,0.01,0.00,-0.00,-0.20,0.45,9.90,0.01,-0.00,-0.00,0.14,0.35,9.88,0.00,0.00,-0.00,1.98,0.31,9.66,0.0000,0.0000,0.00
20132290,0.00,-0.00,-0.00,-0.29,0.48,9.86,0.00,0.00,-0.00,-0.04,0.77,9.86,0.01,0.00,0.00,-0.19,0.48,9.87,0.00,0.00,-0.00,0.14,0.36,9.94,0.00,0.00,-0.00,1.98,0.28,9.75,0.0000,0.0000,0.00
20142290,-0.00,-0.00,-0.00,-0.24,0.50,9.85,0.00,-0.00,0.00,-0.03,0.78,9.83,-0.00,-0.00,0.00,-0.21,0.49,9.84,-0.00,-0.00,0.00,0.14,0.33,9.92,-0.00,-0.00,0.00,1.98,0.33,9.75,0.0000,0.0000,0.00
20152290,-0.01,-0.00,0.00,-0.24,0.48,9.92,-0.00,0.00,-0.00,-0.02,0.75,9.89,-0.00,0.00,-0.00,-0.18,0.46,9.87,-0.00,-0.00,-0.00,0.14,0.35,9.92,-0.01,-0.00,0.00,1.97,0.28,9.63,0.0000,0.0000,0.00
20162290,-0.00,-0.00,-0.00,-0.28,0.46,9.85,-0.00,-0.00,0.00,-0.01,0.80,9.84,-0.00,0.00,-0.00,-0.20,0.50,9.84,-0.00,0.00,-0.00,0.17,0.35,9.90,-0.00,0.00,-0.00,1.97,0.29,9.63,0.0000,0.0000,0.00
20172290,0.00,-0.00,-0.00,-0.26,0.50,9.80,0.00,-0.00,-0.00,-0.06,0.76,9.82,0.00,0.00,-0.00,-0.19,0.49,9.78,0.00,0.00,-0.00,0.13,0.35,9.93,0.00,0.00,-0.00,1.98,0.29,9.77,0.0000,0.0000,0.00
20182290,-0.00,0.00,-0.00,-0.28,0.51,9.84,0.00,0.00,0.00,-0.07,0.77,9.87,-0.00,-0.00,-0.00,-0.17,0.47,9.83,0.00,-0.00,0.00,0.11,0.36,9.93,-0.00,-0.00,0.00,2.00,0.29,9.72,0.0000,0.0000,0.00
20192290,0.00,-0.00,0.00,-0.29,0.52,9.90,0.00,0.00,0.00,-0.02,0.77,9.85,-0.00,-0.00,-0.00,-0.20,0.45,9.89,-0.00,0.00,0.00,0.13,0.35,9.90,0.00,-0.00,0.00,1.98,0.27,9.63,0.0000,0.0000,0.00
20202290,0.00,0.00,-0.00,-0.28,0.49,9.82,-0.00,0.00,0.00,-0.05,0.73,9.81,0.00,-0.00,-0.00,-0.18,0.47,9.82,0.00,0.00,-0.00,0.11,0.35,9.89,0.00,0.00,-0.00,1.97,0.30,9.74,0.0000,0.0000,0.00
20212290,0.00,0.00,-0.00,-0.27,0.48,9.82,0.00,0.00,-0.00,-0.04,0.73,9.84,0.00,-0.00,0.00,-0.19,0.50,9.79,0.00,-0.00,-0.00,0.12,0.35,9.93,-0.00,-0.00,-0.00,1.99,0.31,9.74,0.0000,0.0000,0.00
20222290,0.00,0.00,0.00,-0.27,0.51,9.92,0.00,-0.00,-0.00,-0.01,0.73,9.86,-0.00,-0.00,0.00,-0.21,0.46,9.88,-0.00,-0.00,-0.00,0.15,0.31,9.91,-0.00,-0.00,-0.00,2.00,0.30,9.68,0.0000,0.0000,0.00
20232290,0.00,0.00,-0.00,-0.29,0.49,9.86,0.00,0.00,-0.00,-0.02,0.75,9.85,0.00,0.00,-0.00,-0.16,0.52,9.86,0.00,0.00,0.00,0.13,0.35,9.88,0.00,0.00,-0.00,1.98,0.23,9.64,0.0000,0.0000,0.00
20242290,-0.00,-0.00,0.00,-0.29,0.46,9.81,-0.00,-0.00,0.00,-0.01,0.77,9.81,0.00,0.00,0.00,-0.21,0.46,9.82,0.00,0.00,-0.00,0.16,0.36,9.94,-0.00,0.00,0.00,1.98,0.28,9.76,0.0000,0.0000,0.00
20252290,-0.00,-0.00,-0.00,-0.26,0.49,9.83,-0.00,-0.00,-0.00,-0.04,0.73,9.82,-0.00,0.00,0.00,-0.20,0.48,9.82,-0.00,-0.00,0.00,0.12,0.34,9.88,-0.00,-0.00,-0.00,1.98,0.31,9.70,0.0000,0.0000,0.00
20262290,-0.00,-0.00,0.00,-0.24,0.52,9.88,-0.00,-0.00,0.00,-0.02,0.74,9.82,0.00,0.00,-0.00,-0.22,0.48,9.86,-0.00,-0.00,-0.00,0.13,0.36,9.90,-0.00,-0.00,-0.00,2.01,0.31,9.64,0.0000,0.0000,0.00
20272290,0.00,-0.00,0.00,-0.30,0.49,9.84,0.00,-0.00,0.00,-0.06,0.74,9.82,0.00,-0.00,0.00,-0.20,0.47,9.82,0.00,0.00,-0.00,0.13,0.35,9.88,0.00,0.00,-0.00,1.99,0.25,9.69,0.0000,0.0000,0.00
20282290,0.00,-0.00,-0.00,-0.23,0.50,9.83,0.01,-0.00,0.00,-0.04,0.80,9.82,0.00,-0.00,0.00,-0.21,0.47,9.81,0.00,0.00,-0.00,0.13,0.39,9.90,0.00,0.00,0.00,1.98,0.29,9.75,0.0000,0.0000,0.00
20292290,-0.00,0.00,0.00,-0.27,0.53,9.85,0.00,-0.00,-0.00,-0.06,0.82,9.82,0.00,0.00,0.00,-0.20,0.42,9.80,0.00,-0.00,0.00,0.16,0.38,9.87,-0.00,-0.00,-0.00,1.99,0.29,9.70,0.0000,0.0000,0.00
20302290,0.00,-0.00,0.00,-0.30,0.50,9.90,-0.00,0.00,0.00,-0.03,0.78,9.87,0.00,-0.00,-0.00,-0.18,0.48,9.89,0.00,0.00,0.00,0.14,0.34,9.92,0.00,0.00,-0.00,2.00,0.31,9.65,0.0000,0.0000,0.00
20312290,-0.00,0.00,0.00,-0.31,0.53,9.85,-0.00,0.00,0.00,-0.02,0.79,9.83,0.00,0.00,-0.00,-0.20,0.48,9.83,0.00,0.00,0.00,0.12,0.35,9.89,0.00,0.00,-0.00,1.97,0.34,9.70,0.0000,0.0000,0.00
20322290,-0.00,-0.00,0.00,-0.26,0.52,9.80,-0.00,-0.00,-0.00,-0.01,0.73,9.81,-0.00,-0.00,-0.00,-0.21,0.47,9.84,-0.00,-0.00,-0.00,0.13,0.35,9.90,-0.00,0.00,0.00,1.99,0.29,9.74,0.0000,0.0000,0.00
20332290,-0.00,-0.00,-0.00,-0.25,0.50,9.85,-0.00,-0.00,-0.00,-0.03,0.80,9.84,-0.00,-0.00,0.00,-0.16,0.47,9.85,-0.00,-0.00,0.00,0.17,0.37,9.89,-0.00,-0.00,-0.00,1.97,0.29,9.66,0.0000,0.0000,0.00
20342290,-0.00,0.00,0.00,-0.27,0.47,9.88,0.00,-0.00,0.00,-0.04,0.78,9.84,-0.00,0.00,-0.00,-0.19,0.49,9.87,-0.00,-0.00,-0.00,0.13,0.33,9.87,-0.00,0.00,-0.00,1.98,0.28,9.64,0.0000,0.0000,0.00
20352290,0.00,0.00,-0.00,-0.25,0.52,9.84,-0.00,0.00,-0.00,-0.07,0.78,9.77,0.00,0.00,-0.00,-0.21,0.48,9.81,0.00,0.00,-0.00,0.09,0.35,9.85,-0.00,0.00,0.00,1.96,0.28,9.73,0.0000,0.0000,0.00
20362290,0.00,-0.00,0.00,-0.28,0.53,9.84,0.00,0.00,0.00,-0.03,0.76,9.84,-0.00,-0.00,0.00,-0.20,0.44,9.84,0.00,-0.00,-0.00,0.15,0.35,9.87,0.00,-0.00,-0.00,1.96,0.32,9.74,0.0000,0.0000,0.00
20372290,0.00,-0.00,-0.00,-0.27,0.51,9.86,-0.00,-0.00,-0.00,-0.05,0.75,9.84,0.00,-0.00,-0.00,-0.19,0.47,9.84,0.00,0.00,0.00,0.16,0.37,9.90,0.00,-0.00,-0.00,1.97,0.30,9.64,0.0000,0.0000,0.00
20382290,0.00,0.00,-0.00,-0.29,0.47,9.86,0.00,-0.00,-0.00,-0.01,0.76,9.82,0.00,0.00,-0.00,-0.20,0.51,9.84,0.00,0.00,-0.00,0.10,0.35,9.91,0.00,0.00,-0.00,1.96,0.32,9.69,0.0000,0.0000,0.00
20392290,0.00,0.00,0.00,-0.27,0.50,9.84,-0.00,0.00,-0.00,-0.03,0.78,9.80,0.00,-0.00,0.00,-0.17,0.47,9.82,-0.00,-0.00,-0.00,0.11,0.33,9.88,0.00,-0.00,0.00,1.97,0.31,9.74,0.0000,0.0000,0.00
20402290,0.00,0.00,0.00,-0.28,0.46,9.83,-0.00,-0.00,-0.00,-0.03,0.72,9.85,0.00,-0.00,0.00,-0.19,0.49,9.82,0.00,-0.00,-0.00,0.12,0.35,9.83,0.00,0.00,0.00,1.97,0.30,9.69,0.0000,0.0000,0.00
20412290,0.00,0.00,0.00,-0.27,0.52,9.84,0.00,-0.00,0.00,-0.02,0.77,9.82,0.00,-0.00,0.00,-0.17,0.50,9.85,0.00,0.00,0.00,0.16,0.36,9.85,0.00,0.00,-0.00,2.02,0.29,9.65,0.0000,0.0000,0.00
20422290,0.00,0.00,-0.00,-0.28,0.50,9.85,0.00,0.00,-0.00,-0.01,0.76,9.77,0.00,-0.00,-0.00,-0.19,0.45,9.82,0.00,-0.00,0.00,0.10,0.33,9.93,0.00,0.00,-0.00,1.98,0.28,9.73,0.0000,0.0000,0.00
20432290,-0.00,0.00,0.00,-0.27,0.49,9.86,-0.00,0.00,-0.00,-0.01,0.76,9.83,0.00,-0.00,-0.00,-0.20,0.49,9.85,-0.00,-0.00,-0.00,0.13,0.34,9.90,-0.00,-0.00,-0.00,1.96,0.28,9.68,0.0000,0.0000,0.00
20442290,0.00,-0.00,0.00,-0.29,0.48,9.85,-0.00,-0.00,0.00,-0.04,0.74,9.87,-0.00,-0.00,-0.00,-0.22,0.47,9.86,-0.00,0.00,0.00,0.15,0.32,9.88,0.00,0.00,0.00,1.96,0.28,9.62,0.0000,0.0000,0.00
20452290,-0.00,0.00,0.00,-0.25,0.50,9.83,-0.00,0.00,0.00,-0.05,0.75,9.83,-0.00,-0.00,0.00,-0.19,0.47,9.83,-0.00,0.00,0.00,0.15,0.35,9.89,0.00,0.00,0.00,1.97,0.31,9.68,0.0000,0.0000,0.00
20462290,-0.00,-0.00,0.00,-0.26,0.50,9.81,-0.00,0.00,0.00,-0.05,0.77,9.81,-0.00,0.00,-0.00,-0.17,0.49,9.82,-0.00,0.00,-0.00,0.10,0.35,9.89,0.00,0.00,-0.00,1.99,0.32,9.75,0.0000,0.0000,0.00
20472290,0.00,0.00,0.00,-0.26,0.50,9.83,0.00,-0.00,-0.00,-0.01,0.73,9.83,-0.00,-0.00,0.00,-0.22,0.51,9.82,0.00,-0.00,0.00,0.13,0.36,9.87,-0.00,-0.00,-0.00,1.96,0.31,9.67,0.0000,0.0000,0.00
20482290,0.00,-0.00,0.00,-0.27,0.47,9.86,0.00,0.00,0.00,-0.05,0.75,9.85,0.00,-0.00,0.00,-0.21,0.48,9.84,0.00,-0.00,0.00,0.17,0.35,9.91,0.00,0.00,-0.00,1.93,0.29,9.68,0.0000,0.0000,0.00
20492290,0.00,0.00,0.00,-0.29,0.52,9.81,0.00,-0.00,0.00,-0.03,0.79,9.81,0.00,0.00,0.00,-0.19,0.51,9.82,0.00,-0.00,0.00,0.13,0.38,9.90,0.00,-0.00,-0.00,1.97,0.33,9.74,0.0000,0.0000,0.00
20502290,0.00,-0.00,-0.00,-0.27,0.52,9.82,-0.00,0.00,-0.00,-0.02,0.76,9.80,0.00,0.00,-0.00,-0.15,0.47,9.82,-0.00,-0.00,-0.00,0.09,0.34,9.89,0.00,-0.00,-0.00,1.98,0.28,9.70,0.0000,0.0000,0.00
20512290,-0.00,-0.00,-0.00,-0.25,0.52,9.87,-0.00,0.00,-0.00,-0.03,0.78,9.84,-0.00,-0.00,0.00,-0.24,0.48,9.85,0.00,-0.00,0.00,0.13,0.35,9.88,-0.00,0.00,-0.00,2.00,0.27,9.62,0.0000,0.0000,0.00
20522290,-0.00,0.00,0.00,-0.29,0.54,9.83,0.00,0.00,0.00,-0.04,0.77,9.82,-0.00,0.00,0.00,-0.20,0.45,9.83,-0.00,0.00,-0.00,0.14,0.36,9.85,-0.00,0.00,-0.00,1.97,0.31,9.65,0.0000,0.0000,0.00
20532290,-0.00,-0.00,0.00,-0.28,0.53,9.84,-0.00,0.00,-0.00,-0.01,0.75,9.81,-0.00,-0.00,0.00,-0.18,0.49,9.84,-0.00,0.00,-0.00,0.09,0.34,9.89,-0.00,-0.00,0.00,1.99,0.30,9.71,0.0000,0.0000,0.00
20542290,0.00,0.00,0.00,-0.27,0.51,9.84,0.00,-0.00,0.00,-0.03,0.75,9.82,0.00,-0.00,-0.00,-0.21,0.46,9.84,0.00,0.00,-0.00,0.13,0.36,9.84,-0.00,-0.00,-0.00,1.98,0.32,9.67,0.0000,0.0000,0.00
20552290,0.00,-0.00,-0.00,-0.26,0.51,9.85,0.00,-0.00,0.00,-0.01,0.75,9.83,0.00,-0.00,-0.00,-0.20,0.50,9.82,0.00,0.00,0.00,0.13,0.35,9.89,0.00,-0.00,0.00,2.01,0.30,9.63,0.0000,0.0000,0.00
20562290,0.00,-0.00,-0.00,-0.28,0.53,9.82,0.00,-0.00,-0.00,-0.03,0.76,9.81,0.00,0.00,0.00,-0.20,0.51,9.82,0.00,0.00,0.00,0.14,0.34,9.90,0.00,0.00,-0.00,2.01,0.31,9.67,0.0000,0.0000,0.00
20572290,-0.00,-0.00,-0.00,-0.27,0.49,9.82,0.00,0.00,0.00,-0.04,0.76,9.82,-0.00,-0.00,-0.00,-0.18,0.50,9.78,-0.00,0.00,-0.00,0.15,0.35,9.91,-0.00,-0.00,-0.00,2.02,0.32,9.71,0.0000,0.0000,0.00
20582290,-0.00,0.00,-0.00,-0.29,0.47,9.89,0.00,-0.00,0.00,-0.05,0.80,9.80,-0.00,-0.00,-0.00,-0.19,0.46,9.85,-0.00,0.00,0.00,0.13,0.33,9.90,-0.00,-0.00,-0.00,2.00,0.27,9.67,0.0000,0.0000,0.00
20592290,0.00,-0.00,-0.00,-0.27,0.50,9.84,0.00,0.00,0.00,-0.04,0.75,9.81,-0.00,0.00,-0.00,-0.22,0.48,9.81,0.00,-0.00,0.00,0.10,0.35,9.90,-0.00,-0.00,0.00,1.96,0.31,9.64,0.0000,0.0000,0.00
20602290,-0.00,-0.00,-0.00,-0.27,0.47,9.82,0.00,0.00,0.00,-0.02,0.79,9.81,0.00,0.00,-0.00,-0.18,0.45,9.82,0.00,0.00,0.00,0.12,0.34,9.92,-0.00,0.00,-0.00,2.00,0.28,9.71,0.0000,0.0000,0.00
20612290,-0.00,-0.00,0.00,-0.27,0.49,9.83,0.00,-0.00,0.00,-0.05,0.76,9.84,0.00,0.00,0.00,-0.19,0.47,9.83,-0.00,-0.00,0.00,0.13,0.35,9.86,0.00,0.00,-0.00,2.00,0.30,9.65,0.0000,0.0000,0.00
20622290,-0.00,-0.00,-0.00,-0.27,0.49,9.82,-0.00,0.00,0.00,-0.06,0.77,9.83,0.00,0.00,-0.00,-0.18,0.46,9.84,0.00,-0.00,-0.00,0.13,0.35,9.91,0.00,-0.00,0.00,1.98,0.30,9.67,0.0000,0.0000,0.00
20632290,-0.00,0.00,-0.00,-0.29,0.47,9.85,-0.00,-0.00,0.00,-0.03,0.76,9.83,-0.00,0.00,-0.00,-0.23,0.46,9.82,-0.00,0.00,0.00,0.15,0.34,9.90,-0.00,0.00,-0.00,1.97,0.28,9.70,0.0000,0.0000,0.00
20642290,0.00,0.00,-0.00,-0.28,0.46,9.79,0.00,-0.00,-0.00,-0.05,0.78,9.78,0.00,-0.00,0.00,-0.20,0.48,9.79,-0.00,-0.00,-0.00,0.11,0.35,9.88,-0.00,0.00,0.00,1.99,0.30,9.70,0.0000,0.0000,0.00
20652290,0.00,0.00,0.00,-0.24,0.48,9.83,-0.00,0.00,-0.00,-0.06,0.75,9.82,0.00,-0.00,-0.00,-0.20,0.47,9.80,0.00,0.00,-0.00,0.15,0.34,9.88,0.00,-0.00,-0.00,2.01,0.26,9.64,0.0000,0.0000,0.00
20662290,0.00,-0.00,-0.00,-0.29,0.48,9.83,0.00,0.00,-0.00,-0.04,0.78,9.81,0.00,0.00,0.00,-0.20,0.44,9.81,0.00,-0.00,0.00,0.11,0.35,9.89,0.00,-0.00,-0.00,2.00,0.29,9.67,0.0000,0.0000,0.00
20672290,0.00,-0.00,0.00,-0.29,0.52,9.83,-0.00,0.00,-0.00,-0.05,0.75,9.79,0.00,-0.00,0.00,-0.18,0.46,9.80,0.00,0.00,0.00,0.15,0.35,9.85,0.00,-0.00,-0.00,1.99,0.28,9.67,0.0000,0.0000,0.00
20682290,0.00,-0.00,0.00,-0.28,0.52,9.84,-0.00,0.00,-0.00,-0.04,0.77,9.84,0.00,-0.00,0.00,-0.17,0.47,9.80,-0.00,-0.00,0.00,0.12,0.37,9.86,-0.00,-0.00,-0.00,1.97,0.29,9.68,0.0000,0.0000,0.00
20692290,-0.00,-0.00,0.00,-0.26,0.51,9.83,0.00,0.00,0.00,-0.04,0.75,9.83,-0.00,-0.00,0.00,-0.20,0.44,9.83,0.00,0.00,-0.00,0.12,0.33,9.88,-0.00,-0.00,0.00,1.99,0.32,9.65,0.0000,0.0000,0.00
20702290,-0.00,-0.00,0.00,-0.28,0.49,9.85,0.00,0.00,-0.00,-0.05,0.76,9.82,0.00,0.00,0.00,-0.19,0.45,9.82,-0.00,-0.00,0.00,0.12,0.36,9.84,0.00,0.00,-0.00,2.00,0.29,9.66,0.0000,0.0000,0.00
20712290,0.00,0.00,-0.00,-0.23,0.48,9.81,0.00,0.00,-0.00,-0.05,0.76,9.80,-0.00,0.00,-0.00,-0.19,0.48,9.82,0.00,0.00,0.00,0.14,0.37,9.86,0.00,-0.00,0.00,2.00,0.28,9.74,0.0000,0.0000,0.00
20722290,-0.00,-0.00,0.00,-0.26,0.49,9.83,-0.00,-0.00,0.00,-0.03,0.76,9.83,-0.00,0.00,-0.00,-0.21,0.47,9.85,0.00,0.00,-0.00,0.10,0.38,9.86,-0.00,-0.00,-0.00,1.97,0.31,9.64,0.0000,0.0000,0.00
20732290,0.00,-0.00,-0.00,-0.29,0.52,9.85,-0.00,-0.00,-0.00,-0.03,0.74,9.83,0.00,-0.00,0.00,-0.20,0.45,9.84,0.00,0.00,0.00,0.10,0.36,9.85,0.00,0.00,-0.00,1.97,0.28,9.65,0.0000,0.0000,0.00
20742290,-0.00,-0.00,-0.00,-0.26,0.49,9.85,0.00,0.00,0.00,-0.05,0.77,9.79,-0.00,0.00,-0.00,-0.18,0.50,9.82,-0.00,0.00,-0.00,0.14,0.36,9.85,-0.00,-0.00,0.00,2.04,0.31,9.68,0.0000,0.0000,0.00
20752290,-0.00,-0.00,-0.00,-0.27,0.51,9.80,0.00,0.00,0.00,-0.03,0.75,9.82,-0.00,-0.00,-0.00,-0.23,0.45,9.80,-0.00,-0.00,0.00,0.15,0.35,9.88,-0.00,-0.00,-0.00,1.99,0.31,9.69,0.0000,0.0000,0.00
20762290,0.00,0.00,0.00,-0.28,0.51,9.85,0.00,0.00,0.00,-0.04,0.76,9.84,0.00,-0.00,-0.00,-0.21,0.46,9.86,0.00,0.00,0.00,0.13,0.35,9.90,0.00,0.00,-0.00,2.00,0.23,9.62,0.0000,0.0000,0.00
20772290,0.00,0.00,0.00,-0.29,0.49,9.85,0.00,0.00,-0.00,-0.06,0.76,9.83,0.00,0.00,-0.00,-0.19,0.51,9.82,0.00,0.00,-0.00,0.14,0.36,9.84,0.00,0.00,-0.00,2.02,0.32,9.67,0.0000,0.0000,0.00
20782290,0.00,0.00,-0.00,-0.27,0.50,9.83,0.00,0.00,-0.00,-0.06,0.78,9.82,0.00,-0.00,0.00,-0.22,0.47,9.77,0.00,0.00,0.00,0.13,0.35,9.90,-0.00,-0.00,0.00,2.00,0.26,9.68,0.0000,0.0000,0.00
20792290,0.00,-0.00,0.00,-0.23,0.49,9.83,0.00,0.00,0.00,-0.02,0.76,9.82,0.00,0.00,0.00,-0.19,0.45,9.81,-0.00,0.00,0.00,0.12,0.35,9.86,0.00,-0.00,-0.00,1.96,0.31,9.65,0.0000,0.0000,0.00
20802290,-0.00,0.00,-0.00,-0.25,0.52,9.85,0.00,0.00,-0.00,-0.06,0.80,9.83,-0.00,0.00,0.00,-0.17,0.46,9.81,0.00,-0.00,0.00,0.13,0.36,9.91,-0.00,0.00,0.00,1.98,0.30,9.67,0.0000,0.0000,0.00
20812290,-0.00,-0.00,0.00,-0.29,0.51,9.83,0.00,-0.00,-0.00,-0.06,0.75,9.79,0.00,-0.00,-0.00,-0.19,0.48,9.81,-0.00,-0.00,0.00,0.12,0.35,9.87,0.00,0.00,0.00,1.99,0.30,9.66,0.0000,0.0000,0.00
20822290,-0.00,-0.00,0.00,-0.26,0.52,9.81,0.00,0.00,-0.00,-0.05,0.78,9.80,0.00,-0.00,-0.00,-0.18,0.47,9.79,-0.00,-0.00,-0.00,0.16,0.35,9.90,0.00,-0.00,-0.00,1.99,0.30,9.68,0.0000,0.0000,0.00
20832290,0.00,-0.00,-0.00,-0.26,0.48,9.86,-0.00,0.00,-0.00,-0.04,0.75,9.84,0.00,-0.00,0.00,-0.19,0.51,9.83,0.00,0.00,0.00,0.14,0.36,9.87,0.00,-0.00,0.00,1.98,0.32,9.64,0.0000,0.0000,0.00
20842290,-0.00,-0.00,-0.00,-0.25,0.50,9.81,-0.00,0.00,-0.00,-0.05,0.76,9.80,-0.00,-0.00,-0.00,-0.19,0.45,9.82,-0.00,-0.00,0.00,0.14,0.36,9.88,0.00,-0.00,-0.00,1.97,0.28,9.67,0.0000,0.0000,0.00
20852290,0.00,0.00,0.00,-0.29,0.51,9.84,0.00,-0.00,-0.00,-0.09,0.76,9.79,0.00,0.00,0.00,-0.21,0.47,9.78,0.00,0.00,-0.00,0.17,0.36,9.86,-0.00,-0.00,0.00,2.00,0.30,9.67,0.0000,0.0000,0.00
20862290,0.00,-0.00,-0.00,-0.28,0.49,9.85,0.00,0.00,0.00,-0.04,0.77,9.80,-0.00,0.00,0.00,-0.20,0.48,9.81,0.00,0.00,-0.00,0.13,0.37,9.86,-0.00,-0.00,0.00,1.99,0.28,9.69,0.0000,0.0000,0.00
20872290,-0.00,0.00,-0.00,-0.25,0.51,9.81,-0.00,0.00,-0.00,-0.04,0.76,9.79,0.00,-0.00,0.00,-0.20,0.50,9.84,0.00,0.00,-0.00,0.13,0.37,9.87,0.00,0.00,-0.00,1.99,0.29,9.63,0.0000,0.0000,0.00
20882290,0.00,-0.00,-0.00,-0.29,0.47,9.81,0.00,-0.00,0.00,-0.02,0.76,9.79,-0.00,0.00,-0.00,-0.19,0.47,9.82,0.00,0.00,0.00,0.16,0.34,9.89,-0.00,0.00,-0.00,1.95,0.32,9.68,0.0000,0.0000,0.00
20892290,-0.00,-0.00,-0.00,-0.28,0.48,9.82,-0.00,0.00,0.00,-0.03,0.75,9.78,0.00,-0.00,-0.00,-0.23,0.48,9.82,-0.00,-0.00,0.00,0.14,0.36,9.83,-0.00,0.00,-0.00,1.99,0.31,9.69,0.0000,0.0000,0.00
20902290,-0.00,-0.00,0.00,-0.24,0.51,9.83,0.00,-0.00,0.00,-0.04,0.76,9.84,0.00,0.00,0.00,-0.23,0.47,9.84,0.00,0.00,-0.00,0.14,0.32,9.85,0.00,0.00,-0.00,1.94,0.32,9.67,0.0000,0.0000,0.00
20912290,-0.00,-0.00,-0.00,-0.25,0.48,9.85,-0.00,0.00,-0.00,-0.02,0.76,9.79,0.00,-0.00,-0.00,-0.20,0.44,9.81,-0.00,0.00,0.00,0.14,0.33,9.87,-0.00,-0.00,0.00,2.02,0.27,9.64,0.0000,0.0000,0.00
20922290,0.00,-0.00,0.00,-0.24,0.50,9.83,0.00,-0.00,0.00,-0.07,0.77,9.82,-0.00,0.00,-0.00,-0.19,0.50,9.80,0.00,-0.00,-0.00,0.14,0.36,9.90,0.00,0.00,-0.00,2.00,0.29,9.68,0.0000,0.0000,0.00
20932290,-0.00,-0.00,-0.00,-0.26,0.48,9.84,-0.00,0.00,-0.00,-0.04,0.73,9.82,0.00,0.00,-0.00,-0.16,0.43,9.79,0.00,0.00,0.00,0.14,0.35,9.89,-0.00,-0.00,-0.00,1.98,0.28,9.65,0.0000,0.0000,0.00
20942290,0.00,0.00,-0.00,-0.25,0.49,9.85,0.00,0.00,-0.00,-0.06,0.75,9.81,0.00,-0.00,0.00,-0.22,0.48,9.82,-0.00,0.00,0.00,0.17,0.35,9.87,0.00,-0.00,-0.00,2.03,0.29,9.68,0.0000,0.0000,0.00
20952290,-0.00,0.00,-0.00,-0.27,0.48,9.85,-0.00,0.00,0.00,-0.03,0.72,9.82,-0.00,0.00,0.00,-0.22,0.53,9.79,-0.00,-0.00,0.00,0.12,0.34,9.86,0.00,-0.00,0.00,1.94,0.32,9.66,0.0000,0.0000,0.00
20962290,-0.00,0.00,-0.00,-0.25,0.48,9.81,-0.00,0.00,-0.00,-0.04,0.75,9.83,0.00,-0.00,0.00,-0.20,0.44,9.78,0.00,0.00,0.00,0.11,0.34,9.88,-0.00,-0.00,-0.00,2.01,0.33,9.64,0.0000,0.0000,0.00
20972290,-0.00,0.00,-0.00,-0.26,0.47,9.85,0.00,0.00,0.00,-0.03,0.76,9.81,-0.00,-0.00,-0.00,-0.20,0.49,9.82,-0.00,0.00,-0.00,0.13,0.34,9.84,-0.00,0.00,-0.00,1.97,0.31,9.69,0.0000,0.0000,0.00
20982290,-0.00,-0.00,-0.00,-0.26,0.48,9.81,-0.00,-0.00,-0.00,-0.07,0.76,9.80,0.00,-0.00,-0.00,-0.20,0.49,9.81,0.00,-0.00,-0.00,0.11,0.35,9.84,0.00,-0.00,0.00,2.00,0.31,9.64,0.0000,0.0000,0.00
20992290,0.00,-0.00,0.00,-0.28,0.50,9.83,0.00,0.00,-0.00,-0.05,0.78,9.77,0.00,-0.00,-0.00,-0.23,0.49,9.79,0.00,-0.00,-0.00,0.16,0.33,9.87,0.00,0.00,0.00,1.98,0.33,9.71,0.0000,0.0000,0.00
21002290,0.00,-0.00,0.00,-0.26,0.53,9.83,-0.00,-0.00,-0.00,-0.02,0.79,9.82,-0.00,0.00,-0.00,-0.18,0.48,9.80,0.00,0.00,-0.00,0.13,0.35,9.86,0.00,-0.00,-0.00,1.96,0.30,9.65,0.0000,0.0000,0.00
21012290,0.00,-0.00,0.00,-0.24,0.47,9.85,0.00,0.00,0.00,-0.01,0.72,9.84,0.00,-0.00,-0.00,-0.21,0.46,9.80,0.00,-0.00,0.00,0.14,0.35,9.87,0.00,-0.00,-0.00,1.96,0.29,9.63,0.0000,0.0000,0.00
21022290,-0.00,0.00,0.00,-0.27,0.53,9.84,0.00,-0.00,0.00,-0.03,0.78,9.81,-0.00,-0.00,0.00,-0.22,0.47,9.82,0.00,0.00,-0.00,0.15,0.35,9.86,0.00,0.00,-0.00,2.00,0.28,9.64,0.0000,0.0000,0.00
21032290,-0.00,0.00,0.00,-0.25,0.53,9.82,0.00,-0.00,0.00,-0.06,0.76,9.79,-0.00,0.00,-0.00,-0.19,0.48,9.83,-0.00,0.00,-0.00,0.11,0.35,9.88,-0.00,-0.00,0.00,2.03,0.32,9.70,0.0000,0.0000,0.00
21042290,-0.00,-0.00,-0.00,-0.27,0.49,9.78,-0.00,0.00,-0.00,-0.04,0.78,9.78,-0.00,-0.00,0.00,-0.22,0.45,9.79,0.00,-0.00,0.00,0.11,0.33,9.87,0.00,0.00,-0.00,1.99,0.26,9.63,0.0000,0.0000,0.00
21052290,-0.00,-0.00,-0.00,-0.24,0.51,9.80,0.00,0.00,-0.00,-0.03,0.78,9.79,-0.00,0.00,-0.00,-0.18,0.48,9.79,-0.00,0.00,0.00,0.16,0.38,9.83,-0.00,-0.00,0.00,2.00,0.33,9.64,0.0000,0.0000,0.00
21062290,-0.00,-0.00,-0.00,-0.29,0.52,9.83,0.00,-0.00,-0.00,-0.03,0.73,9.78,-0.00,0.00,0.00,-0.20,0.47,9.81,-0.00,-0.00,0.00,0.13,0.35,9.89,-0.00,0.00,-0.00,1.99,0.29,9.69,0.0000,0.0000,0.00
21072290,-0.00,-0.00,0.00,-0.28,0.50,9.75,0.00,0.00,-0.00,-0.06,0.74,9.81,0.00,-0.00,0.00,-0.19,0.47,9.75,-0.00,0.00,0.00,0.12,0.37,9.89,0.00,-0.00,-0.00,2.01,0.27,9.67,0.0000,0.0000,0.00
21082290,0.00,-0.00,0.00,-0.24,0.49,9.82,-0.00,0.00,0.00,0.00,0.76,9.80,-0.00,-0.00,0.00,-0.18,0.51,9.79,0.00,0.00,-0.00,0.14,0.36,9.87,0.00,0.00,-0.00,1.97,0.27,9.67,0.0000,0.0000,0.00
21092290,-0.00,-0.00,0.00,-0.27,0.49,9.80,0.00,-0.00,0.00,-0.07,0.76,9.80,0.00,0.00,-0.00,-0.21,0.47,9.81,0.00,0.00,-0.00,0.12,0.35,9.84,0.00,0.00,0.00,1.96,0.28,9.62,0.0000,0.0000,0.00
21102290,0.00,-0.00,0.00,-0.25,0.47,9.81,0.00,0.00,0.00,-0.04,0.75,9.79,-0.00,0.00,0.00,-0.18,0.47,9.78,0.00,-0.00,-0.00,0.13,0.37,9.86,-0.00,0.00,-0.00,1.98,0.32,9.67,0.0000,0.0000,0.00
21112290,0.00,-0.00,0.00,-0.29,0.47,9.83,0.00,-0.00,0.00,-0.03,0.78,9.81,0.00,0.00,0.00,-0.13,0.49,9.83,-0.00,-0.00,-0.00,0.14,0.34,9.83,-0.00,0.00,-0.00,2.02,0.29,9.66,0.0000,0.0000,0.00
21122290,0.00,0.00,0.00,-0.26,0.48,9.83,-0.00,-0.00,0.00,-0.06,0.79,9.84,0.00,-0.00,0.00,-0.18,0.47,9.82,-0.00,0.00,-0.00,0.15,0.38,9.86,0.00,-0.00,-0.00,1.98,0.30,9.64,0.0000,0.0000,0.00
21132290,0.00,0.00,0.00,-0.29,0.52,9.81,0.00,-0.00,-0.00,0.00,0.73,9.81,0.00,0.00,-0.00,-0.19,0.51,9.81,0.00,-0.00,0.00,0.13,0.34,9.89,0.00,0.00,-0.00,1.98,0.31,9.67,0.0000,0.0000,0.00
21142290,0.00,-0.00,0.00,-0.28,0.52,9.82,-0.00,-0.00,0.00,-0.05,0.77,9.80,0.00,0.00,-0.00,-0.22,0.48,9.78,-0.00,0.00,0.00,0.12,0.36,9.89,0.00,-0.00,0.00,1.99,0.32,9.69,0.0000,0.0000,0.00
21152290,0.00,0.00,0.00,-0.30,0.48,9.84,-0.00,0.00,0.00,-0.05,0.76,9.85,-0.00,0.00,0.00,-0.18,0.50,9.83,-0.00,-0.00,-0.00,0.13,0.36,9.83,-0.00,-0.00,0.00,1.97,0.26,9.65,0.0000,0.0000,0.00
21162290,-0.00,-0.00,-0.00,-0.26,0.53,9.84,-0.00,0.00,-0.00,-0.09,0.76,9.80,0.00,-0.00,-0.00,-0.21,0.46,9.82,-0.00,0.00,0.00,0.13,0.39,9.85,0.00,0.00,0.00,1.99,0.29,9.64,0.0000,0.0000,0.00
21172290,-0.00,0.00,-0.00,-0.30,0.51,9.80,0.00,0.00,0.00,-0.06,0.76,9.80,0.00,0.00,-0.00,-0.19,0.47,9.77,0.00,0.00,0.00,0.14,0.35,9.87,0.00,-0.00,-0.00,1.97,0.29,9.69,0.0000,0.0000,0.00
21182290,-0.00,0.00,0.00,-0.27,0.48,9.81,0.00,0.00,0.00,-0.04,0.76,9.82,-0.00,-0.00,0.00,-0.20,0.44,9.80,0.00,0.00,0.00,0.16,0.33,9.85,-0.00,-0.00,0.00,2.03,0.28,9.67,0.0000,0.0000,0.00
21192290,-0.00,-0.00,-0.00,-0.28,0.49,9.80,-0.00,0.00,-0.00,-0.06,0.78,9.79,0.00,-0.00,-0.00,-0.21,0.47,9.81,0.00,-0.00,0.00,0.16,0.35,9.89,-0.00,-0.00,0.00,1.96,0.31,9.67,0.0000,0.0000,0.00
21202290,-0.00,0.00,-0.00,-0.27,0.50,9.85,0.00,0.00,0.00,-0.05,0.77,9.79,0.00,-0.00,-0.00,-0.24,0.47,9.82,0.00,0.00,-0.00,0.11,0.35,9.89,-0.00,0.00,-0.00,1.98,0.32,9.64,0.0000,0.0000,0.00
21212290,-0.00,0.00,-0.00,-0.22,0.50,9.80,0.00,-0.00,0.00,-0.04,0.75,9.76,0.00,-0.00,-0.00,-0.19,0.48,9.80,0.00,0.00,-0.00,0.12,0.34,9.85,0.00,-0.00,0.00,1.97,0.27,9.64,0.0000,0.0000,0.00
21222290,-0.00,-0.00,-0.00,-0.28,0.51,9.82,0.00,0.00,-0.00,-0.06,0.77,9.80,-0.00,0.00,-0.00,-0.20,0.48,9.80,-0.00,0.00,-0.00,0.13,0.36,9.85,-0.00,-0.00,-0.00,1.98,0.29,9.64,0.0000,0.0000,0.00
21232290,-0.00,0.00,0.00,-0.26,0.48,9.84,0.00,0.00,-0.00,-0.03,0.75,9.80,0.00,0.00,-0.00,-0.17,0.48,9.83,0.00,-0.00,0.00,0.12,0.36,9.86,-0.00,0.00,-0.00,1.98,0.31,9.63,0.0000,0.0000,0.00
21242290,-0.00,-0.00,0.00,-0.29,0.50,9.77,0.00,-0.00,0.00,-0.06,0.74,9.79,0.00,0.00,0.00,-0.23,0.48,9.80,-0.00,0.00,-0.00,0.10,0.35,9.82,-0.00,0.00,-0.00,1.98,0.27,9.66,0.0000,0.0000,0.00
21252290,-0.00,-0.00,-0.00,-0.23,0.46,9.85,0.00,-0.00,0.00,-0.05,0.82,9.83,0.00,0.00,0.00,-0.20,0.48,9.78,0.00,0.00,-0.00,0.10,0.36,9.83,-0.00,0.00,-0.00,1.95,0.31,9.68,0.0000,0.0000,0.00
21262290,-0.00,-0.00,-0.00,-0.28,0.47,9.84,-0.00,-0.00,0.00,-0.05,0.74,9.83,-0.00,0.00,-0.00,-0.17,0.48,9.80,-0.00,-0.00,-0.00,0.14,0.34,9.84,0.00,0.00,0.00,1.98,0.30,9.64,0.0000,0.0000,0.00
21272290,-0.00,-0.00,-0.00,-0.30,0.47,9.80,0.00,-0.00,-0.00,-0.05,0.76,9.77,-0.00,-0.00,-0.00,-0.19,0.44,9.81,0.00,0.00,0.00,0.12,0.35,9.85,-0.00,-0.00,0.00,2.00,0.31,9.63,0.0000,0.0000,0.00
21282290,-0.00,0.00,0.00,-0.24,0.53,9.77,-0.00,-0.00,-0.00,-0.04,0.79,9.81,-0.00,0.00,0.00,-0.18,0.51,9.80,-0.00,0.00,-0.00,0.14,0.35,9.86,-0.00,0.00,-0.00,1.97,0.29,9.68,0.0000,0.0000,0.00
21292290,0.00,-0.00,-0.00,-0.28,0.49,9.82,0.00,0.00,0.00,-0.02,0.77,9.81,0.00,0.00,0.00,-0.16,0.48,9.79,0.00,-0.00,-0.00,0.13,0.33,9.86,0.00,0.00,-0.00,1.98,0.26,9.65,0.0000,0.0000,0.00
21302290,0.00,0.00,0.00,-0.27,0.50,9.85,0.00,-0.00,0.00,-0.05,0.80,9.82,-0.00,0.00,-0.00,-0.15,0.50,9.82,0.00,0.00,0.00,0.14,0.38,9.87,0.00,0.00,-0.00,1.97,0.30,9.66,0.0000,0.0000,0.00
21312290,0.00,-0.00,-0.00,-0.29,0.54,9.85,0.00,-0.00,0.00,-0.05,0.78,9.84,-0.00,0.00,0.00,-0.19,0.50,9.80,-0.00,0.00,0.00,0.12,0.36,9.86,0.00,0.00,-0.00,2.00,0.31,9.68,0.0000,0.0000,0.00
21322290,0.00,0.00,-0.00,-0.26,0.51,9.80,0.00,-0.00,0.00,-0.06,0.75,9.82,-0.00,0.00,-0.00,-0.17,0.48,9.77,0.00,0.00,0.00,0.15,0.37,9.85,-0.00,0.00,0.00,1.97,0.28,9.65,0.0000,0.0000,0.00
21332290,-0.00,-0.00,-0.00,-0.27,0.49,9.82,-0.00,0.00,-0.00,-0.02,0.75,9.79,-0.00,-0.00,-0.00,-0.20,0.45,9.78,0.00,0.00,0.00,0.14,0.35,9.84,-0.00,0.00,-0.00,2.00,0.29,9.65,0.0000,0.0000,0.00
21342290,0.00,-0.00,-0.00,-0.26,0.50,9.83,0.00,-0.00,0.00,-0.03,0.77,9.81,0.00,-0.00,0.00,-0.19,0.45,9.83,0.00,-0.00,0.00,0.13,0.35,9.86,0.00,-0.00,-0.00,1.95,0.33,9.68,0.0000,0.0000,0.00
21352290,0.00,-0.00,-0.00,-0.25,0.48,9.79,0.00,-0.00,-0.00,-0.06,0.75,9.81,0.00,0.00,-0.00,-0.19,0.47,9.81,0.00,0.00,0.00,0.12,0.33,9.85,-0.00,0.00,0.00,1.99,0.29,9.66,0.0000,0.0000,0.00
21362290,0.00,0.00,-0.00,-0.28,0.50,9.83,-0.00,0.00,0.00,-0.06,0.76,9.81,0.00,-0.00,-0.00,-0.20,0.48,9.79,0.00,-0.00,0.00,0.16,0.33,9.87,0.00,0.00,0.00,1.99,0.31,9.65,0.0000,0.0000,0.00
21372290,-0.00,0.00,-0.00,-0.27,0.50,9.84,-0.00,-0.00,0.00,-0.06,0.73,9.83,-0.00,0.00,0.00,-0.20,0.47,9.82,-0.00,0.00,0.00,0.12,0.33,9.84,0.00,-0.00,-0.00,1.96,0.32,9.66,0.0000,0.0000,0.00
21382290,-0.00,0.00,0.00,-0.24,0.51,9.85,-0.00,-0.00,-0.00,-0.01,0.76,9.78,-0.00,0.00,-0.00,-0.23,0.48,9.79,0.00,0.00,-0.00,0.10,0.34,9.84,-0.00,0.00,-0.00,1.98,0.30,9.64,0.0000,0.0000,0.00
21392290,-0.00,0.00,-0.00,-0.25,0.51,9.84,0.00,-0.00,0.00,-0.01,0.75,9.75,0.00,0.00,-0.00,-0.20,0.45,9.80,0.00,0.00,-0.00,0.17,0.35,9.85,0.00,-0.00,0.00,1.98,0.30,9.68,0.0000,0.0000,0.00
21402290,-0.00,-0.00,0.00,-0.27,0.47,9.81,0.00,-0.00,0.00,-0.03,0.80,9.81,-0.00,0.00,-0.00,-0.20,0.47,9.78,0.00,0.00,0.00,0.12,0.35,9.86,-0.00,-0.00,-0.00,2.00,0.30,9.71,0.0000,0.0000,0.00
21412290,-0.00,-0.00,0.00,-0.26,0.49,9.83,0.00,0.00,-0.00,-0.02,0.79,9.77,0.00,0.00,-0.00,-0.21,0.48,9.80,-0.00,-0.00,0.00,0.11,0.34,9.87,-0.00,-0.00,0.00,1.99,0.31,9.66,0.0000,0.0000,0.00
21422290,-0.00,-0.00,0.00,-0.29,0.50,9.82,0.00,0.00,0.00,-0.05,0.76,9.82,0.00,0.00,-0.00,-0.17,0.51,9.77,0.00,-0.00,0.00,0.11,0.35,9.86,0.00,0.00,-0.00,2.00,0.32,9.64,0.0000,0.0000,0.00
21432290,-0.00,-0.00,0.00,-0.26,0.53,9.84,-0.00,-0.00,0.00,-0.04,0.76,9.76,0.00,-0.00,0.00,-0.24,0.50,9.82,0.00,-0.00,0.00,0.12,0.36,9.87,-0.00,-0.00,0.00,1.98,0.29,9.67,0.0000,0.0000,0.00
21442290,-0.00,-0.00,-0.00,-0.23,0.47,9.82,0.00,-0.00,0.00,-0.05,0.76,9.81,0.00,-0.00,-0.00,-0.22,0.45,9.78,0.00,-0.00,0.00,0.08,0.34,9.83,0.00,0.00,-0.00,1.96,0.30,9.68,0.0000,0.0000,0.00
21452290,0.00,-0.00,0.00,-0.29,0.51,9.82,0.00,-0.00,0.00,-0.06,0.72,9.78,0.00,0.00,-0.00,-0.19,0.46,9.83,-0.00,-0.00,-0.00,0.15,0.34,9.87,0.00,-0.00,-0.00,1.98,0.30,9.67,0.0000,0.0000,0.00
21462290,-0.00,-0.00,-0.00,-0.26,0.50,9.81,-0.00,0.00,-0.00,-0.04,0.76,9.79,-0.00,-0.00,-0.00,-0.20,0.50,9.82,-0.00,-0.00,-0.00,0.14,0.35,9.81,0.00,0.00,0.00,2.00,0.29,9.65,0.0000,0.0000,0.00
21472290,-0.00,0.00,-0.00,-0.28,0.50,9.80,-0.00,-0.00,-0.00,-0.06,0.77,9.82,-0.00,-0.00,0.00,-0.20,0.49,9.80,-0.00,-0.00,-0.00,0.12,0.35,9.86,-0.00,0.00,-0.00,1.98,0.29,9.66,0.0000,0.0000,0.00
21482290,-0.00,-0.00,-0.00,-0.29,0.50,9.82,-0.00,0.00,-0.00,0.00,0.73,9.80,0.00,-0.00,0.00,-0.16,0.46,9.80,0.00,0.00,0.00,0.13,0.33,9.85,-0.00,0.00,0.00,1.97,0.29,9.64,0.0000,0.0000,0.00
21492290,-0.00,-0.00,-0.00,-0.27,0.49,9.81,-0.00,0.00,-0.00,-0.07,0.76,9.79,0.00,0.00,-0.00,-0.16,0.46,9.78,0.00,-0.00,-0.00,0.15,0.34,9.87,-0.00,0.00,-0.00,2.01,0.33,9.61,0.0000,0.0000,0.00
21502290,0.00,0.00,0.00,-0.28,0.45,9.82,-0.00,0.00,0.00,-0.05,0.74,9.79,0.00,-0.00,0.00,-0.17,0.47,9.76,-0.00,-0.00,0.00,0.11,0.35,9.83,-0.00,0.00,0.00,1.98,0.27,9.63,0.0000,0.0000,0.00
21512290,-0.00,0.00,-0.00,-0.23,0.50,9.85,0.00,-0.00,0.00,0.01,0.76,9.77,-0.00,-0.00,-0.00,-0.20,0.46,9.81,0.00,-0.00,0.00,0.12,0.32,9.88,-0.00,0.00,-0.00,2.01,0.35,9.68,0.0000,0.0000,0.00
21522290,-0.00,-0.00,0.00,-0.27,0.49,9.81,-0.00,0.00,-0.00,-0.02,0.78,9.77,0.00,0.00,-0.00,-0.17,0.50,9.81,-0.00,0.00,0.00,0.13,0.34,9.85,0.00,-0.00,0.00,2.00,0.27,9.68,0.0000,0.0000,0.00
21532290,-0.00,-0.00,-0.00,-0.30,0.48,9.80,-0.00,0.00,-0.00,-0.03,0.76,9.81,0.00,-0.00,-0.00,-0.18,0.45,9.80,-0.00,0.00,0.00,0.15,0.35,9.84,-0.00,-0.00,-0.00,2.02,0.29,9.61,0.0000,0.0000,0.00
21542290,0.00,-0.00,-0.00,-0.27,0.50,9.83,0.00,-0.00,-0.00,-0.04,0.73,9.82,0.00,0.00,0.00,-0.19,0.51,9.82,0.00,0.00,-0.00,0.14,0.36,9.84,-0.00,-0.00,-0.00,1.96,0.30,9.68,0.0000,0.0000,0.00
21552290,0.00,-0.00,-0.00,-0.24,0.52,9.79,-0.00,0.00,0.00,-0.02,0.80,9.81,0.00,0.00,-0.00,-0.24,0.49,9.80,-0.00,0.00,0.00,0.10,0.35,9.84,-0.00,-0.00,-0.00,2.01,0.33,9.64,0.0000,0.0000,0.00
21562290,-0.00,-0.00,-0.00,-0.26,0.49,9.80,0.00,-0.00,-0.00,-0.04,0.77,9.80,-0.00,-0.00,-0.00,-0.15,0.47,9.78,0.00,-0.00,0.00,0.12,0.36,9.85,-0.00,-0.00,-0.00,1.97,0.31,9.64,0.0000,0.0000,0.00
21572290,0.00,-0.00,0.00,-0.27,0.52,9.85,0.00,0.00,-0.00,-0.06,0.74,9.81,0.00,0.00,-0.00,-0.20,0.47,9.77,0.00,0.00,-0.00,0.10,0.35,9.88,-0.00,0.00,-0.00,1.97,0.33,9.71,0.0000,0.0000,0.00
21582290,0.00,-0.00,-0.00,-0.29,0.52,9.82,-0.00,0.00,-0.00,-0.03,0.78,9.79,0.00,-0.00,0.00,-0.22,0.48,9.80,-0.00,0.00,0.00,0.13,0.34,9.88,-0.00,-0.00,-0.00,1.97,0.33,9.64,0.0000,0.0000,0.00
21592290,-0.00,-0.00,0.00,-0.25,0.49,9.75,-0.00,0.00,-0.00,-0.06,0.73,9.82,-0.00,-0.00,-0.00,-0.20,0.47,9.81,0.00,0.00,0.00,0.13,0.36,9.85,-0.00,-0.00,0.00,1.96,0.29,9.65,0.0000,0.0000,0.00
21602290,-0.00,-0.00,-0.00,-0.30,0.53,9.83,-0.00,-0.00,0.00,-0.05,0.78,9.81,0.00,-0.00,0.00,-0.21,0.49,9.81,-0.00,0.00,0.00,0.14,0.33,9.87,-0.00,-0.00,-0.00,2.01,0.31,9.62,0.0000,0.0000,0.00
21612290,-0.00,0.00,-0.00,-0.29,0.49,9.80,-0.00,0.00,0.00,-0.01,0.78,9.76,-0.00,-0.00,-0.00,-0.16,0.47,9.77,0.00,0.00,0.00,0.12,0.37,9.89,-0.00,-0.00,0.00,2.01,0.28,9.62,0.0000,0.0000,0.00
21622290,0.00,-0.00,0.00,-0.28,0.55,9.80,0.00,0.00,-0.00,-0.04,0.77,9.80,-0.00,-0.00,-0.00,-0.18,0.48,9.81,0.00,0.00,-0.00,0.09,0.39,9.84,0.00,0.00,-0.00,1.98,0.29,9.66,0.0000,0.0000,0.00
21632290,0.00,0.00,0.00,-0.26,0.48,9.85,0.00,-0.00,0.00,-0.04,0.80,9.83,-0.00,-0.00,-0.00,-0.18,0.46,9.83,-0.00,0.00,-0.00,0.14,0.33,9.85,-0.00,-0.00,0.00,1.97,0.31,9.63,0.0000,0.0000,0.00
21642290,-0.00,0.00,-0.00,-0.30,0.48,9.79,0.00,-0.00,0.00,-0.04,0.76,9.77,-0.00,-0.00,-0.00,-0.20,0.47,9.80,-0.00,0.00,-0.00,0.14,0.38,9.87,-0.00,-0.00,-0.00,2.02,0.29,9.67,0.0000,0.0000,0.00
21652290,-0.00,0.00,-0.00,-0.26,0.50,9.82,-0.00,0.00,-0.00,-0.07,0.74,9.79,0.00,-0.00,-0.00,-0.21,0.44,9.80,-0.00,-0.00,0.00,0.14,0.35,9.84,-0.00,0.00,-0.00,1.97,0.26,9.68,0.0000,0.0000,0.00
21662290,-0.00,0.00,0.00,-0.29,0.50,9.85,-0.00,-0.00,0.00,-0.07,0.73,9.81,0.00,-0.00,0.00,-0.20,0.51,9.79,-0.00,-0.00,-0.00,0.11,0.37,9.85,-0.00,-0.00,-0.00,1.96,0.32,9.61,0.0000,0.0000,0.00
21672290,0.00,0.00,-0.00,-0.30,0.50,9.80,0.00,-0.00,0.00,-0.02,0.77,9.77,0.00,-0.00,-0.00,-0.20,0.46,9.79,0.00,-0.00,0.00,0.16,0.33,9.86,0.00,0.00,-0.00,1.97,0.29,9.63,0.0000,0.0000,0.00
21682290,0.00,0.00,-0.00,-0.24,0.48,9.85,0.00,-0.00,-0.00,-0.06,0.76,9.79,0.00,0.00,-0.00,-0.21,0.48,9.82,-0.00,-0.00,-0.00,0.14,0.36,9.89,0.00,-0.00,-0.00,2.01,0.28,9.70,0.0000,0.0000,0.00
21692290,-0.00,0.00,0.00,-0.28,0.48,9.84,0.00,-0.00,0.00,-0.03,0.76,9.83,-0.00,0.00,0.00,-0.19,0.41,9.82,-0.00,-0.00,0.00,0.14,0.35,9.85,-0.00,-0.00,-0.00,1.96,0.33,9.64,0.0000,0.0000,0.00
21702290,-0.00,-0.00,-0.00,-0.27,0.48,9.82,-0.00,-0.00,-0.00,-0.06,0.73,9.77,-0.00,0.00,0.00,-0.18,0.47,9.77,-0.00,0.00,-0.00,0.12,0.36,9.80,-0.00,0.00,-0.00,1.97,0.27,9.63,0.0000,0.0000,0.00
21712290,-0.00,-0.00,-0.00,-0.23,0.51,9.79,0.00,0.00,-0.00,-0.05,0.77,9.79,0.00,0.00,-0.00,-0.19,0.49,9.80,0.00,-0.00,-0.00,0.14,0.38,9.88,0.00,0.00,-0.00,1.97,0.31,9.67,0.0000,0.0000,0.00
21722290,-0.00,0.00,0.00,-0.26,0.48,9.82,-0.00,0.00,-0.00,-0.04,0.77,9.78,0.00,-0.00,0.00,-0.22,0.46,9.81,-0.00,-0.00,0.00,0.17,0.33,9.87,-0.00,-0.00,-0.00,2.00,0.29,9.68,0.0000,0.0000,0.00
21732290,0.00,-0.00,-0.00,-0.26,0.51,9.79,0.00,0.00,-0.00,-0.06,0.73,9.79,-0.00,0.00,0.00,-0.18,0.49,9.80,0.00,0.00,-0.00,0.14,0.37,9.83,0.00,0.00,0.00,1.97,0.29,9.63,0.0000,0.0000,0.00
21742290,0.00,-0.00,0.00,-0.24,0.49,9.84,-0.00,0.00,-0.00,-0.03,0.78,9.83,-0.00,0.00,-0.00,-0.15,0.48,9.82,0.00,-0.00,0.00,0.15,0.35,9.85,0.00,0.00,-0.00,2.03,0.32,9.63,0.0000,0.0000,0.00
21752290,-0.00,-0.00,0.00,-0.27,0.48,9.81,-0.00,0.00,0.00,-0.03,0.77,9.81,-0.00,0.00,-0.00,-0.19,0.48,9.78,-0.00,-0.00,0.00,0.15,0.38,9.87,-0.00,0.00,0.00,1.94,0.31,9.65,0.0000,0.0000,0.00
21762290,0.00,0.00,-0.00,-0.29,0.50,9.82,0.00,-0.00,0.00,-0.07,0.78,9.79,0.00,-0.00,-0.00,-0.20,0.45,9.77,0.00,0.00,-0.00,0.12,0.37,9.82,0.00,0.00,-0.00,2.00,0.30,9.62,0.0000,0.0000,0.00
21772290,0.00,0.00,0.00,-0.26,0.48,9.85,0.00,0.00,0.00,-0.04,0.75,9.81,0.00,0.00,0.00,-0.20,0.48,9.81,0.00,0.00,0.00,0.15,0.35,9.84,0.00,0.00,-0.00,1.99,0.33,9.64,0.0000,0.0000,0.00
21782290,-0.00,0.00,0.00,-0.27,0.46,9.82,-0.00,-0.00,0.00,-0.04,0.79,9.80,-0.00,0.00,0.00,-0.20,0.50,9.81,-0.00,-0.00,0.00,0.10,0.35,9.86,-0.00,-0.00,-0.00,1.97,0.28,9.68,0.0000,0.0000,0.00
21792290,-0.00,-0.00,0.00,-0.27,0.48,9.78,-0.00,0.00,0.00,-0.09,0.75,9.76,-0.00,0.00,-0.00,-0.19,0.47,9.81,-0.00,-0.00,-0.00,0.12,0.34,9.81,-0.00,-0.00,-0.00,1.99,0.29,9.68,0.0000,0.0000,0.00
21802290,0.00,-0.00,-0.00,-0.25,0.48,9.81,-0.00,0.00,0.00,-0.06,0.72,9.82,0.00,0.00,0.00,-0.20,0.46,9.82,-0.00,0.00,-0.00,0.13,0.34,9.89,-0.00,0.00,-0.00,1.98,0.31,9.67,0.0000,0.0000,0.00
21812290,-0.00,0.00,-0.00,-0.26,0.47,9.81,0.00,-0.00,-0.00,-0.05,0.75,9.79,-0.00,-0.00,0.00,-0.21,0.47,9.82,0.00,0.00,0.00,0.10,0.35,9.83,0.00,0.00,0.00,2.00,0.26,9.63,0.0000,0.0000,0.00
21822290,0.00,0.00,0.00,-0.27,0.52,9.80,0.00,-0.00,-0.00,-0.04,0.75,9.77,0.00,-0.00,-0.00,-0.19,0.43,9.82,0.00,-0.00,-0.00,0.10,0.36,9.85,0.00,0.00,0.00,1.99,0.34,9.67,0.0000,0.0000,0.00
21832290,0.00,-0.00,-0.00,-0.27,0.50,9.82,0.00,-0.00,0.00,-0.01,0.78,9.79,0.00,0.00,-0.00,-0.15,0.47,9.82,0.00,-0.00,-0.00,0.13,0.37,9.88,0.00,-0.00,-0.00,1.96,0.32,9.66,0.0000,0.0000,0.00
21842290,-0.00,-0.00,-0.00,-0.28,0.50,9.83,-0.00,0.00,0.00,-0.06,0.75,9.79,-0.00,-0.00,-0.00,-0.20,0.46,9.79,0.00,-0.00,0.00,0.14,0.36,9.83,-0.00,-0.00,0.00,1.96,0.31,9.63,0.0000,0.0000,0.00
21852290,-0.00,-0.00,-0.00,-0.28,0.53,9.82,-0.00,0.00,0.00,-0.04,0.79,9.78,0.00,-0.00,0.00,-0.21,0.46,9.78,-0.00,-0.00,0.00,0.15,0.32,9.87,-0.00,0.00,-0.00,1.96,0.27,9.69,0.0000,0.0000,0.00
21862290,-0.00,-0.00,-0.00,-0.27,0.50,9.81,0.00,-0.00,0.00,-0.05,0.74,9.80,-0.00,-0.00,-0.00,-0.21,0.50,9.82,-0.00,0.00,-0.00,0.11,0.35,9.86,-0.00,0.00,-0.00,2.00,0.32,9.63,0.0000,0.0000,0.00
21872290,-0.00,-0.00,-0.00,-0.28,0.47,9.80,-0.00,-0.00,0.00,-0.06,0.76,9.78,-0.00,0.00,-0.00,-0.23,0.43,9.80,0.00,0.00,-0.00,0.14,0.34,9.87,-0.00,-0.00,-0.00,1.94,0.31,9.63,0.0000,0.0000,0.00
21882290,-0.00,-0.00,-0.00,-0.26,0.49,9.85,-0.00,-0.00,-0.00,-0.06,0.80,9.78,0.00,0.00,0.00,-0.21,0.46,9.86,0.00,0.00,0.00,0.17,0.38,9.87,0.00,0.00,-0.00,2.01,0.27,9.66,0.0000,0.0000,0.00
21892290,-0.00,-0.00,0.00,-0.27,0.50,9.79,-0.00,0.00,0.00,-0.05,0.75,9.82,-0.00,0.00,-0.00,-0.20,0.44,9.76,-0.00,0.00,-0.00,0.15,0.36,9.85,-0.00,-0.00,0.00,1.95,0.26,9.66,0.0000,0.0000,0.00
21902290,-0.00,-0.00,-0.00,-0.27,0.48,9.82,-0.00,-0.00,-0.00,-0.01,0.78,9.77,-0.00,0.00,-0.00,-0.17,0.51,9.78,-0.00,0.00,0.00,0.14,0.35,9.83,-0.00,-0.00,0.00,1.93,0.31,9.64,0.0000,0.0000,0.00
21912290,0.00,-0.00,0.00,-0.30,0.52,9.85,0.00,-0.00,0.00,-0.05,0.75,9.81,0.00,0.00,-0.00,-0.19,0.51,9.81,0.00,-0.00,0.00,0.14,0.37,9.84,0.00,0.00,-0.00,1.97,0.27,9.61,0.0000,0.0000,0.00
21922290,0.00,0.00,-0.00,-0.25,0.49,9.79,-0.00,0.00,-0.00,-0.05,0.78,9.80,0.00,-0.00,0.00,-0.15,0.46,9.82,0.00,0.00,0.00,0.16,0.35,9.87,0.00,-0.00,-0.00,1.97,0.32,9.68,0.0000,0.0000,0.00
21932290,0.00,-0.00,-0.00,-0.25,0.50,9.78,0.00,-0.00,-0.00,-0.04,0.72,9.76,-0.00,0.00,0.00,-0.19,0.47,9.78,0.00,0.00,0.00,0.13,0.35,9.87,0.00,0.00,-0.00,2.00,0.30,9.67,0.0000,0.0000,0.00
21942290,-0.00,0.00,-0.00,-0.28,0.51,9.84,-0.00,0.00,-0.00,-0.08,0.77,9.84,-0.00,-0.00,-0.00,-0.16,0.50,9.82,-0.00,0.00,-0.00,0.12,0.36,9.88,-0.00,-0.00,-0.00,1.99,0.29,9.64,0.0000,0.0000,0.00
21952290,-0.00,-0.00,0.00,-0.29,0.54,9.82,-0.00,-0.00,0.00,-0.02,0.75,9.79,-0.00,-0.00,0.00,-0.18,0.45,9.82,-0.00,0.00,-0.00,0.14,0.35,9.84,-0.00,-0.00,-0.00,2.02,0.30,9.64,0.0000,0.0000,0.00
21962290,0.00,-0.00,-0.00,-0.30,0.48,9.80,0.00,-0.00,0.00,-0.04,0.74,9.79,0.00,-0.00,0.00,-0.21,0.46,9.78,0.00,-0.00,0.00,0.14,0.35,9.85,-0.00,0.00,-0.00,2.00,0.32,9.68,0.0000,0.0000,0.00
21972290,0.00,0.00,-0.00,-0.29,0.47,9.81,0.00,-0.00,-0.00,-0.05,0.75,9.82,0.00,-0.00,0.00,-0.16,0.50,9.78,0.00,-0.00,0.00,0.17,0.34,9.84,-0.00,0.00,0.00,2.02,0.32,9.69,0.0000,0.0000,0.00
21982290,0.00,-0.00,-0.00,-0.24,0.51,9.78,-0.00,-0.00,0.00,-0.06,0.78,9.77,-0.00,-0.00,-0.00,-0.20,0.48,9.81,-0.00,-0.00,-0.00,0.14,0.35,9.86,-0.00,0.00,-0.00,1.97,0.32,9.64,0.0000,0.0000,0.00
21992290,-0.00,-0.00,-0.00,-0.28,0.46,9.82,-0.00,-0.00,-0.00,-0.01,0.75,9.80,0.00,0.00,-0.00,-0.20,0.48,9.81,0.00,0.00,-0.00,0.14,0.35,9.84,-0.00,0.00,-0.00,2.00,0.30,9.67,0.0000,0.0000,0.00
22002290,-0.00,-0.00,-0.00,-0.28,0.48,9.82,-0.00,-0.00,0.00,-0.03,0.76,9.78,0.00,0.00,-0.00,-0.22,0.45,9.81,0.00,-0.00,-0.00,0.16,0.35,9.86,-0.00,-0.00,0.00,2.01,0.30,9.68,0.0000,0.0000,0.00
22012290,-0.00,0.00,-0.00,-0.29,0.53,9.83,0.00,0.00,-0.00,-0.04,0.77,9.78,0.00,-0.00,0.00,-0.16,0.48,9.77,-0.00,0.00,-0.00,0.11,0.35,9.85,-0.00,-0.00,0.00,1.95,0.28,9.60,0.0000,0.0000,0.00
22022290,0.00,-0.00,-0.00,-0.24,0.49,9.81,0.00,0.00,-0.00,-0.06,0.75,9.77,0.00,0.00,0.00,-0.20,0.50,9.81,0.00,0.00,0.00,0.15,0.34,9.85,0.00,0.00,-0.00,1.98,0.34,9.63,0.0000,0.0000,0.00
22032290,0.00,-0.00,0.00,-0.27,0.46,9.81,0.00,0.00,-0.00,-0.04,0.78,9.77,-0.00,0.00,0.00,-0.18,0.49,9.81,0.00,0.00,-0.00,0.12,0.36,9.85,0.00,-0.00,-0.00,1.99,0.33,9.65,0.0000,0.0000,0.00
22042290,-0.00,-0.00,-0.00,-0.28,0.51,9.81,0.00,0.00,0.00,-0.04,0.77,9.79,-0.00,0.00,0.00,-0.19,0.46,9.78,-0.00,-0.00,0.00,0.13,0.35,9.87,-0.00,0.00,0.00,1.98,0.30,9.63,0.0000,0.0000,0.00
22052290,-0.00,-0.00,-0.00,-0.27,0.51,9.84,-0.00,0.00,0.00,-0.04,0.78,9.78,-0.00,-0.00,0.00,-0.22,0.48,9.81,-0.00,0.00,-0.00,0.13,0.35,9.85,0.00,0.00,0.00,1.98,0.30,9.63,0.0000,0.0000,0.00
22062290,-0.00,0.00,0.00,-0.25,0.51,9.81,-0.00,0.00,0.00,-0.05,0.74,9.78,-0.00,-0.00,-0.00,-0.17,0.45,9.82,-0.00,0.00,-0.00,0.17,0.36,9.85,-0.00,0.00,-0.00,1.98,0.31,9.62,0.0000,0.0000,0.00
22072290,-0.00,-0.00,-0.00,-0.26,0.49,9.81,0.00,-0.00,-0.00,-0.03,0.76,9.76,-0.00,-0.00,0.00,-0.18,0.47,9.79,-0.00,-0.00,0.00,0.17,0.35,9.87,-0.00,0.00,-0.00,2.00,0.29,9.65,0.0000,0.0000,0.00
22082290,-0.00,0.00,-0.00,-0.29,0.51,9.83,0.00,-0.00,0.00,-0.02,0.74,9.82,0.00,0.00,-0.00,-0.22,0.50,9.82,0.00,0.00,-0.00,0.13,0.35,9.85,0.00,-0.00,-0.00,2.00,0.32,9.63,0.0000,0.0000,0.00
22092290,0.00,-0.00,0.00,-0.25,0.49,9.83,0.00,-0.00,-0.00,-0.03,0.73,9.77,-0.00,0.00,-0.00,-0.18,0.48,9.77,0.00,0.00,-0.00,0.15,0.42,9.86,0.00,-0.00,-0.00,1.99,0.30,9.66,0.0000,0.0000,0.00
22102290,-0.00,0.00,0.00,-0.29,0.47,9.82,0.00,-0.00,0.00,-0.04,0.78,9.75,0.00,0.00,-0.00,-0.20,0.47,9.76,-0.00,0.00,0.00,0.12,0.35,9.87,-0.00,-0.00,-0.00,1.95,0.29,9.64,0.0000,0.0000,0.00
22112290,0.00,-0.00,-0.00,-0.25,0.51,9.86,-0.00,0.00,-0.00,-0.06,0.76,9.78,-0.00,-0.00,-0.00,-0.20,0.47,9.83,-0.00,-0.00,0.00,0.14,0.35,9.87,-0.00,-0.00,0.00,1.96,0.28,9.63,0.0000,0.0000,0.00
22122290,0.00,-0.00,0.00,-0.28,0.51,9.82,0.00,0.00,-0.00,-0.02,0.77,9.85,0.00,0.00,0.00,-0.21,0.46,9.78,0.00,-0.00,0.00,0.14,0.35,9.86,-0.00,0.00,-0.00,1.96,0.31,9.63,0.0000,0.0000,0.00
22132290,0.00,-0.00,0.00,-0.23,0.51,9.80,-0.00,-0.00,-0.00,-0.06,0.78,9.79,-0.00,0.00,-0.00,-0.18,0.48,9.78,0.00,0.00,-0.00,0.14,0.37,9.83,0.00,-0.00,0.00,2.01,0.31,9.65,0.0000,0.0000,0.00
22142290,0.00,0.00,-0.00,-0.26,0.48,9.80,0.00,-0.00,0.00,-0.06,0.75,9.78,-0.00,-0.00,-0.00,-0.21,0.46,9.79,0.00,-0.00,-0.00,0.13,0.34,9.83,-0.00,-0.00,0.00,2.00,0.28,9.67,0.0000,0.0000,0.00
22152290,-0.00,-0.00,0.00,-0.27,0.51,9.84,-0.00,0.00,0.00,-0.07,0.76,9.79,-0.00,0.00,-0.00,-0.17,0.47,9.82,0.00,0.00,0.00,0.10,0.38,9.84,-0.00,-0.00,0.00,1.93,0.29,9.58,0.0000,0.0000,0.00
22162290,0.00,-0.00,-0.00,-0.30,0.47,9.85,0.00,-0.00,0.00,-0.06,0.76,9.75,-0.00,0.00,-0.00,-0.19,0.45,9.78,0.00,0.00,-0.00,0.13,0.36,9.83,-0.00,0.00,0.00,1.94,0.32,9.66,0.0000,0.0000,0.00
22172290,0.00,0.00,-0.00,-0.31,0.46,9.83,-0.00,-0.00,-0.00,-0.04,0.78,9.79,-0.00,-0.00,-0.00,-0.20,0.47,9.80,-0.00,0.00,0.00,0.11,0.33,9.89,-0.00,-0.00,-0.00,1.99,0.28,9.67,0.0000,0.0000,0.00
22182290,-0.00,0.00,0.00,-0.28,0.51,9.82,-0.00,-0.00,-0.00,-0.05,0.76,9.80,-0.00,-0.00,-0.00,-0.18,0.50,9.79,-0.00,-0.00,0.00,0.14,0.37,9.85,-0.00,-0.00,-0.00,1.99,0.30,9.65,0.0000,0.0000,0.00
22192290,0.00,-0.00,-0.00,-0.25,0.50,9.84,-0.00,0.00,-0.00,-0.05,0.79,9.82,0.00,0.00,-0.00,-0.14,0.49,9.81,0.00,-0.00,-0.00,0.14,0.34,9.84,0.00,0.00,-0.00,1.98,0.31,9.60,0.0000,0.0000,0.00
22202290,0.00,0.00,0.00,-0.29,0.49,9.81,0.00,-0.00,0.00,-0.04,0.72,9.79,0.00,0.00,-0.00,-0.16,0.45,9.78,0.00,-0.00,-0.00,0.14,0.37,9.84,0.00,0.00,0.00,1.95,0.29,9.70,0.0000,0.0000,0.00
22212290,0.00,-0.00,-0.00,-0.25,0.51,9.78,-0.00,-0.00,-0.00,-0.05,0.74,9.79,-0.00,-0.00,0.00,-0.23,0.45,9.82,-0.00,-0.00,0.00,0.13,0.36,9.85,-0.00,-0.00,0.00,1.96,0.31,9.69,0.0000,0.0000,0.00
22222290,0.00,0.00,-0.00,-0.27,0.47,9.82,0.00,-0.00,0.00,-0.01,0.77,9.83,0.00,0.00,-0.00,-0.19,0.45,9.75,0.00,-0.00,-0.00,0.11,0.34,9.87,0.00,0.00,-0.00,1.99,0.27,9.62,0.0000,0.0000,0.00
22232290,0.00,0.00,-0.00,-0.23,0.51,9.81,-0.00,0.00,-0.00,-0.05,0.75,9.78,-0.00,0.00,-0.00,-0.18,0.47,9.79,-0.00,0.00,0.00,0.12,0.35,9.85,0.00,0.00,-0.00,1.97,0.29,9.65,0.0000,0.0000,0.00
22242290,0.00,-0.00,-0.00,-0.29,0.49,9.80,0.00,0.00,0.00,-0.05,0.75,9.76,0.00,-0.00,-0.00,-0.21,0.48,9.76,0.00,-0.00,0.00,0.17,0.37,9.85,0.00,0.00,0.00,2.00,0.30,9.68,0.0000,0.0000,0.00
22252290,0.00,0.00,-0.00,-0.25,0.49,9.81,0.00,-0.00,-0.00,-0.06,0.76,9.78,0.00,0.00,0.00,-0.17,0.51,9.77,-0.00,0.00,0.00,0.12,0.35,9.88,-0.00,-0.00,-0.00,1.97,0.28,9.60,0.0000,0.0000,0.00
22262290,-0.00,0.00,-0.00,-0.30,0.48,9.85,0.00,-0.00,-0.00,-0.06,0.75,9.77,-0.00,0.00,-0.00,-0.19,0.47,9.78,0.00,0.00,0.00,0.10,0.36,9.86,0.00,0.00,-0.00,1.97,0.29,9.60,0.0000,0.0000,0.00
22272290,-0.00,0.00,-0.00,-0.27,0.52,9.82,-0.00,0.00,-0.00,-0.05,0.78,9.77,-0.00,0.00,0.00,-0.18,0.47,9.80,-0.00,0.00,0.00,0.12,0.35,9.86,0.00,0.00,-0.00,2.00,0.26,9.68,0.0000,0.0000,0.00
22282290,-0.00,-0.00,-0.00,-0.27,0.51,9.80,-0.00,-0.00,0.00,-0.05,0.76,9.79,-0.00,-0.00,0.00,-0.21,0.47,9.77,-0.00,-0.00,-0.00,0.16,0.34,9.87,-0.00,0.00,-0.00,1.99,0.30,9.72,0.0000,0.0000,0.00
22292290,-0.00,-0.00,-0.00,-0.24,0.52,9.84,-0.00,-0.00,0.00,-0.04,0.73,9.80,0.00,-0.00,-0.00,-0.18,0.44,9.80,-0.00,0.00,-0.00,0.14,0.35,9.83,-0.00,-0.00,0.00,2.01,0.31,9.63,0.0000,0.0000,0.00
22302290,-0.00,-0.00,-0.00,-0.26,0.51,9.81,-0.00,0.00,0.00,-0.06,0.75,9.77,0.00,0.00,0.00,-0.17,0.49,9.80,-0.00,-0.00,0.00,0.13,0.35,9.84,0.00,0.00,0.00,1.98,0.30,9.65,0.0000,0.0000,0.00
22312290,0.00,-0.00,-0.00,-0.27,0.52,9.81,-0.00,-0.00,0.00,-0.05,0.75,9.77,0.00,-0.00,-0.00,-0.19,0.49,9.81,0.00,0.00,-0.00,0.17,0.31,9.86,-0.00,-0.00,0.00,1.99,0.33,9.68,0.0000,0.0000,0.00
22322290,-0.00,-0.00,0.00,-0.26,0.50,9.82,-0.00,-0.00,-0.00,-0.06,0.77,9.81,-0.00,0.00,-0.00,-0.20,0.44,9.82,0.00,-0.00,-0.00,0.11,0.36,9.87,-0.00,-0.00,0.00,2.01,0.30,9.72,0.0000,0.0000,0.00
22332290,0.00,-0.00,-0.00,-0.26,0.46,9.83,-0.00,0.00,0.00,-0.04,0.77,9.79,0.00,-0.00,-0.00,-0.20,0.48,9.77,0.00,0.00,-0.00,0.14,0.36,9.86,0.00,0.00,-0.00,2.01,0.29,9.64,0.0000,0.0000,0.00
22342290,0.00,-0.00,0.00,-0.24,0.50,9.81,-0.00,-0.00,-0.00,-0.02,0.76,9.78,0.00,-0.00,-0.00,-0.23,0.50,9.77,-0.00,-0.00,0.00,0.12,0.29,9.86,0.00,0.00,0.00,1.97,0.31,9.65,0.0000,0.0000,0.00
22352290,-0.00,-0.00,0.00,-0.24,0.50,9.78,-0.00,0.00,0.00,-0.01,0.78,9.73,-0.00,0.00,0.00,-0.16,0.45,9.78,0.00,-0.00,0.00,0.10,0.36,9.83,-0.00,-0.00,0.00,1.99,0.29,9.66,0.0000,0.0000,0.00
22362290,-0.00,0.00,0.00,-0.24,0.47,9.83,-0.00,0.00,0.00,-0.03,0.79,9.81,-0.00,-0.00,-0.00,-0.20,0.47,9.82,-0.00,0.00,0.00,0.10,0.35,9.84,-0.00,-0.00,0.00,1.95,0.30,9.59,0.0000,0.0000,0.00
22372290,0.00,-0.00,-0.00,-0.26,0.49,9.83,0.00,0.00,-0.00,-0.06,0.73,9.80,-0.00,-0.00,0.00,-0.22,0.46,9.80,-0.00,0.00,-0.00,0.15,0.34,9.83,-0.00,0.00,-0.00,1.96,0.27,9.62,0.0000,0.0000,0.00
22382290,-0.00,0.00,-0.00,-0.29,0.51,9.80,0.00,-0.00,-0.00,-0.06,0.76,9.80,0.00,0.00,0.00,-0.19,0.46,9.78,0.00,0.00,-0.00,0.14,0.38,9.86,0.00,-0.00,0.00,1.97,0.31,9.64,0.0000,0.0000,0.00
22392290,-0.00,-0.00,0.00,-0.25,0.49,9.81,0.00,-0.00,0.00,-0.04,0.74,9.78,0.00,0.00,-0.00,-0.19,0.48,9.79,-0.00,0.00,-0.00,0.14,0.33,9.86,-0.00,0.00,-0.00,1.99,0.30,9.62,0.0000,0.0000,0.00
22402290,0.00,0.00,0.00,-0.29,0.47,9.81,-0.00,0.00,-0.00,-0.02,0.78,9.78,0.00,0.00,0.00,-0.22,0.46,9.82,0.00,-0.00,-0.00,0.15,0.34,9.84,-0.00,-0.00,-0.00,1.99,0.29,9.65,0.0000,0.0000,0.00
22412290,-0.00,0.00,0.00,-0.26,0.49,9.83,-0.00,-0.00,-0.00,-0.05,0.75,9.80,-0.00,0.00,-0.00,-0.21,0.48,9.81,-0.00,0.00,-0.00,0.12,0.35,9.82,-0.00,0.00,-0.00,1.96,0.28,9.62,0.0000,0.0000,0.00
22422290,-0.00,-0.00,-0.00,-0.29,0.48,9.81,-0.00,0.00,-0.00,-0.02,0.75,9.82,0.00,-0.00,-0.00,-0.21,0.48,9.79,-0.00,0.00,0.00,0.12,0.33,9.86,0.00,-0.00,0.00,1.96,0.31,9.66,0.0000,0.0000,0.00
22432290,-0.00,-0.00,0.00,-0.27,0.53,9.82,-0.00,0.00,-0.00,-0.03,0.73,9.79,-0.00,-0.00,-0.00,-0.20,0.47,9.81,-0.00,-0.00,-0.00,0.15,0.36,9.85,0.00,-0.00,0.00,2.02,0.28,9.59,0.0000,0.0000,0.00
22442290,-0.00,-0.00,-0.00,-0.26,0.49,9.83,-0.00,0.00,-0.00,-0.06,0.77,9.78,-0.00,-0.00,0.00,-0.19,0.48,9.76,-0.00,-0.00,0.00,0.10,0.35,9.82,0.00,-0.00,-0.00,1.97,0.31,9.63,0.0000,0.0000,0.00
22452290,-0.00,-0.00,-0.00,-0.24,0.49,9.78,-0.00,-0.00,-0.00,-0.02,0.73,9.78,0.00,-0.00,-0.00,-0.17,0.50,9.78,-0.00,0.00,0.00,0.10,0.38,9.80,-0.00,-0.00,-0.00,2.00,0.32,9.63,0.0000,0.0000,0.00
22462290,0.00,-0.00,-0.00,-0.29,0.50,9.80,-0.00,-0.00,0.00,-0.03,0.77,9.77,0.00,-0.00,0.00,-0.23,0.50,9.78,0.00,-0.00,0.00,0.13,0.34,9.89,-0.00,-0.00,-0.00,2.00,0.29,9.67,0.0000,0.0000,0.00
22472290,-0.00,0.00,-0.00,-0.27,0.49,9.83,-0.00,0.00,-0.00,-0.02,0.78,9.81,-0.00,-0.00,0.00,-0.21,0.47,9.81,-0.00,-0.00,-0.00,0.15,0.36,9.83,-0.00,-0.00,-0.00,2.00,0.32,9.63,0.0000,0.0000,0.00
22482290,0.00,-0.00,-0.00,-0.27,0.50,9.80,0.00,0.00,-0.00,-0.06,0.74,9.79,-0.00,-0.00,-0.00,-0.20,0.46,9.81,-0.00,0.00,0.00,0.15,0.35,9.84,-0.00,-0.00,-0.00,1.99,0.28,9.63,0.0000,0.0000,0.00
22492290,0.00,-0.00,-0.00,-0.26,0.51,9.81,-0.00,0.00,0.00,-0.05,0.78,9.77,0.00,0.00,-0.00,-0.23,0.47,9.79,0.00,-0.00,0.00,0.13,0.32,9.85,0.00,-0.00,-0.00,2.00,0.30,9.63,0.0000,0.0000,0.00
22502290,0.00,0.00,0.00,-0.28,0.50,9.81,0.00,0.00,-0.00,-0.04,0.75,9.79,0.00,-0.00,0.00,-0.22,0.51,9.82,-0.00,-0.00,-0.00,0.14,0.33,9.84,-0.00,-0.00,0.00,1.96,0.33,9.65,0.0000,0.0000,0.00
22512290,0.00,0.00,-0.00,-0.29,0.53,9.79,0.00,0.00,0.00,-0.05,0.77,9.83,0.00,0.00,-0.00,-0.18,0.49,9.85,0.00,0.00,-0.00,0.14,0.33,9.83,0.00,-0.00,0.00,1.95,0.27,9.64,0.0000,0.0000,0.00
22522290,-0.00,0.00,0.00,-0.25,0.50,9.80,0.00,-0.00,0.00,-0.06,0.80,9.78,-0.00,0.00,-0.00,-0.18,0.46,9.79,-0.00,0.00,-0.00,0.15,0.32,9.86,0.00,0.00,0.00,1.97,0.28,9.64,0.0000,0.0000,0.00
22532290,0.00,0.00,-0.00,-0.26,0.51,9.76,-0.00,0.00,-0.00,-0.03,0.79,9.76,0.00,-0.00,0.00,-0.18,0.47,9.82,-0.00,0.00,-0.00,0.14,0.35,9.86,-0.00,0.00,-0.00,1.99,0.31,9.67,0.0000,0.0000,0.00
22542290,0.00,-0.00,0.00,-0.27,0.47,9.82,-0.00,0.00,0.00,-0.02,0.76,9.76,-0.00,-0.00,0.00,-0.17,0.49,9.80,0.00,-0.00,0.00,0.12,0.34,9.86,-0.00,-0.00,-0.00,1.94,0.30,9.59,0.0000,0.0000,0.00
22552290,0.00,-0.00,0.00,-0.28,0.48,9.79,0.00,0.00,0.00,-0.05,0.77,9.78,-0.00,-0.00,0.00,-0.18,0.46,9.80,-0.00,0.00,-0.00,0.12,0.35,9.84,0.00,0.00,-0.00,2.02,0.30,9.64,0.0000,0.0000,0.00
22562290,0.00,-0.00,0.00,-0.28,0.49,9.81,0.00,0.00,-0.00,-0.06,0.74,9.74,-0.00,0.00,-0.00,-0.18,0.51,9.81,0.00,0.00,0.00,0.15,0.35,9.84,-0.00,0.00,-0.00,2.00,0.28,9.64,0.0000,0.0000,0.00
22572290,0.00,-0.00,0.00,-0.29,0.47,9.81,0.00,-0.00,0.00,-0.06,0.77,9.77,-0.00,0.00,-0.00,-0.19,0.46,9.77,-0.00,-0.00,-0.00,0.11,0.33,9.80,-0.00,0.00,-0.00,1.96,0.31,9.65,0.0000,0.0000,0.00
22582290,0.00,-0.00,-0.00,-0.28,0.48,9.84,0.00,0.00,0.00,-0.02,0.78,9.81,-0.00,0.00,-0.00,-0.18,0.47,9.80,-0.00,-0.00,-0.00,0.12,0.36,9.81,-0.00,-0.00,-0.00,1.98,0.32,9.65,0.0000,0.0000,0.00
22592290,-0.00,0.00,-0.00,-0.29,0.52,9.79,0.00,-0.00,0.00,-0.06,0.74,9.79,-0.00,-0.00,-0.00,-0.21,0.50,9.74,0.00,0.00,0.00,0.12,0.34,9.83,0.00,0.00,-0.00,1.98,0.22,9.63,0.0000,0.0000,0.00
22602290,0.00,-0.00,-0.00,-0.28,0.52,9.83,0.00,0.00,-0.00,-0.04,0.74,9.81,0.00,0.00,0.00,-0.16,0.48,9.81,0.00,-0.00,-0.00,0.13,0.29,9.87,0.00,0.00,-0.00,2.04,0.32,9.62,0.0000,0.0000,0.00
22612290,-0.00,0.00,-0.00,-0.26,0.47,9.82,0.00,-0.00,0.00,-0.07,0.74,9.80,0.00,0.00,-0.00,-0.19,0.48,9.82,0.00,-0.00,0.00,0.16,0.37,9.81,0.00,-0.00,-0.00,1.97,0.32,9.63,0.0000,0.0000,0.00
22622290,-0.00,-0.00,-0.00,-0.29,0.48,9.80,0.00,0.00,-0.00,-0.05,0.74,9.77,-0.00,-0.00,0.00,-0.16,0.50,9.79,0.00,-0.00,0.00,0.15,0.35,9.87,-0.00,0.00,-0.00,1.97,0.32,9.61,0.0000,0.0000,0.00
22632290,-0.00,-0.00,0.00,-0.27,0.49,9.80,0.00,-0.00,0.00,-0.03,0.78,9.78,0.00,0.00,-0.00,-0.19,0.48,9.80,-0.00,0.00,0.00,0.16,0.37,9.84,-0.00,-0.00,-0.00,1.97,0.31,9.67,0.0000,0.0000,0.00
22642290,-0.00,-0.00,-0.00,-0.27,0.49,9.81,0.00,-0.00,-0.00,-0.04,0.72,9.74,-0.00,-0.00,-0.00,-0.20,0.47,9.77,-0.00,0.00,-0.00,0.15,0.32,9.87,-0.00,-0.00,-0.00,1.99,0.29,9.66,0.0000,0.0000,0.00
22652290,0.00,-0.00,0.00,-0.25,0.48,9.79,0.00,-0.00,0.00,-0.04,0.77,9.82,-0.00,-0.00,0.00,-0.18,0.48,9.79,0.00,-0.00,0.00,0.14,0.36,9.86,0.00,0.00,0.00,1.96,0.28,9.59,0.0000,0.0000,0.00
22662290,0.00,-0.00,-0.00,-0.28,0.48,9.82,0.00,-0.00,0.00,-0.05,0.76,9.80,-0.00,-0.00,-0.00,-0.20,0.50,9.81,0.00,0.00,-0.00,0.16,0.32,9.87,0.00,0.00,-0.00,1.98,0.30,9.66,0.0000,0.0000,0.00
22672290,-0.00,0.00,0.00,-0.25,0.53,9.81,0.00,-0.00,0.00,-0.05,0.76,9.77,0.00,0.00,-0.00,-0.22,0.50,9.78,-0.00,0.00,-0.00,0.16,0.35,9.88,0.00,-0.00,-0.00,2.03,0.32,9.69,0.0000,0.0000,0.00
22682290,0.00,-0.00,0.00,-0.25,0.49,9.84,-0.00,-0.00,0.00,-0.03,0.80,9.76,-0.00,0.00,-0.00,-0.18,0.47,9.77,-0.00,0.00,0.00,0.14,0.38,9.82,-0.00,-0.00,0.00,2.00,0.31,9.64,0.0000,0.0000,0.00
22692290,-0.00,0.00,-0.00,-0.30,0.46,9.80,-0.00,0.00,-0.00,-0.04,0.76,9.77,0.00,0.00,-0.00,-0.15,0.49,9.78,-0.00,-0.00,0.00,0.13,0.35,9.85,0.00,-0.00,-0.00,2.04,0.27,9.63,0.0000,0.0000,0.00
22702290,0.00,0.00,-0.00,-0.25,0.45,9.80,0.00,0.00,-0.00,-0.06,0.76,9.81,0.00,0.00,-0.00,-0.22,0.47,9.77,0.00,0.00,-0.00,0.14,0.35,9.86,0.00,0.00,0.00,2.00,0.32,9.65,0.0000,0.0000,0.00
22712290,0.00,0.00,-0.00,-0.26,0.47,9.81,0.00,0.00,0.00,-0.06,0.77,9.76,0.00,-0.00,-0.00,-0.22,0.51,9.80,0.00,0.00,-0.00,0.13,0.35,9.83,0.00,0.00,-0.00,1.98,0.28,9.69,0.0000,0.0000,0.00
22722290,-0.00,0.00,-0.00,-0.28,0.50,9.84,-0.00,-0.00,-0.00,-0.04,0.79,9.77,0.00,0.00,0.00,-0.18,0.48,9.78,-0.00,-0.00,0.00,0.10,0.35,9.86,-0.00,0.00,0.00,1.98,0.31,9.66,0.0000,0.0000,0.00
22732290,-0.00,-0.00,0.00,-0.27,0.51,9.83,0.00,-0.00,0.00,-0.04,0.80,9.79,-0.00,-0.00,-0.00,-0.19,0.48,9.81,-0.00,-0.00,-0.00,0.14,0.35,9.84,-0.00,0.00,-0.00,1.98,0.27,9.63,0.0000,0.0000,0.00
22742290,-0.00,-0.00,-0.00,-0.25,0.50,9.79,-0.00,-0.00,-0.00,-0.05,0.75,9.77,-0.00,0.00,-0.00,-0.20,0.44,9.82,-0.00,0.00,-0.00,0.13,0.36,9.84,-0.00,0.00,0.00,1.98,0.29,9.69,0.0000,0.0000,0.00
22752290,0.00,0.00,0.00,-0.28,0.47,9.81,0.00,0.00,0.00,-0.06,0.71,9.79,0.00,0.00,0.00,-0.21,0.47,9.75,0.00,-0.00,0.00,0.14,0.35,9.83,-0.00,-0.00,-0.00,1.97,0.29,9.63,0.0000,0.0000,0.00
22762290,0.00,0.00,0.00,-0.25,0.50,9.80,0.00,0.00,0.00,0.02,0.75,9.80,0.00,0.00,-0.00,-0.19,0.49,9.82,0.00,0.00,-0.00,0.14,0.34,9.80,0.00,-0.00,0.00,2.02,0.33,9.62,0.0000,0.0000,0.00
22772290,0.00,-0.00,-0.00,-0.23,0.52,9.80,0.00,-0.00,0.00,-0.06,0.75,9.84,0.00,-0.00,0.00,-0.24,0.48,9.77,0.00,-0.00,0.00,0.13,0.35,9.84,0.00,-0.00,-0.00,1.98,0.33,9.60,0.0000,0.0000,0.00
22782290,0.00,-0.00,-0.00,-0.28,0.52,9.85,0.00,0.00,-0.00,-0.08,0.77,9.78,0.00,0.00,0.00,-0.18,0.48,9.78,0.00,0.00,0.00,0.13,0.34,9.86,0.00,-0.00,0.00,1.97,0.32,9.66,0.0000,0.0000,0.00
22792290,-0.00,-0.00,0.00,-0.27,0.53,9.82,-0.00,-0.00,0.00,-0.05,0.80,9.77,-0.00,-0.00,-0.00,-0.15,0.47,9.80,-0.00,0.00,-0.00,0.14,0.35,9.88,-0.00,0.00,0.00,2.00,0.31,9.64,0.0000,0.0000,0.00
22802290,-0.00,0.00,-0.00,-0.26,0.47,9.82,0.00,-0.00,0.00,-0.05,0.75,9.74,-0.00,-0.00,-0.00,-0.16,0.48,9.76,0.00,-0.00,0.00,0.11,0.33,9.81,-0.00,0.00,0.00,1.98,0.31,9.61,0.0000,0.0000,0.00
22812290,0.00,-0.00,0.00,-0.25,0.52,9.81,0.00,-0.00,0.00,-0.02,0.74,9.79,0.00,-0.00,0.00,-0.18,0.48,9.78,0.00,-0.00,-0.00,0.13,0.36,9.81,0.00,0.00,0.00,2.02,0.25,9.64,0.0000,0.0000,0.00
22822290,-0.00,0.00,0.00,-0.27,0.54,9.80,0.00,-0.00,0.00,-0.02,0.76,9.80,0.00,-0.00,-0.00,-0.20,0.44,9.80,-0.00,-0.00,-0.00,0.12,0.35,9.81,-0.00,-0.00,-0.00,2.00,0.32,9.65,0.0000,0.0000,0.00
22832290,-0.00,-0.00,0.00,-0.28,0.48,9.80,0.00,0.00,0.00,-0.02,0.78,9.77,0.00,0.00,-0.00,-0.23,0.50,9.82,0.00,-0.00,-0.00,0.14,0.37,9.84,-0.00,-0.00,-0.00,2.03,0.29,9.61,0.0000,0.0000,0.00
22842290,0.00,-0.00,0.00,-0.29,0.47,9.82,-0.00,0.00,-0.00,-0.07,0.71,9.81,-0.00,0.00,-0.00,-0.21,0.48,9.82,-0.00,0.00,0.00,0.14,0.36,9.86,-0.00,0.00,0.00,1.94,0.32,9.64,0.0000,0.0000,0.00
22852290,-0.00,-0.00,0.00,-0.28,0.51,9.80,0.00,-0.00,-0.00,-0.02,0.72,9.78,0.00,-0.00,-0.00,-0.24,0.48,9.81,-0.00,0.00,-0.00,0.13,0.36,9.80,-0.00,0.00,0.00,2.01,0.29,9.65,0.0000,0.0000,0.00
22862290,0.00,-0.00,-0.00,-0.27,0.47,9.78,0.00,0.00,-0.00,-0.06,0.76,9.77,0.00,-0.00,-0.00,-0.20,0.46,9.79,0.00,-0.00,-0.00,0.13,0.32,9.86,-0.00,0.00,-0.00,2.00,0.30,9.64,0.0000,0.0000,0.00
22872290,0.00,-0.00,0.00,-0.23,0.52,9.81,0.00,-0.00,-0.00,-0.04,0.74,9.74,0.00,0.00,0.00,-0.18,0.46,9.80,-0.00,-0.00,0.00,0.17,0.35,9.87,-0.00,0.00,-0.00,2.01,0.31,9.61,0.0000,0.0000,0.00
22882290,-0.00,0.00,-0.00,-0.29,0.51,9.80,0.00,-0.00,0.00,-0.06,0.75,9.77,0.00,-0.00,0.00,-0.23,0.48,9.81,0.00,0.00,0.00,0.13,0.35,9.84,-0.00,0.00,0.00,1.98,0.29,9.67,0.0000,0.0000,0.00
22892290,0.00,0.00,-0.00,-0.27,0.50,9.82,0.00,0.00,-0.00,-0.06,0.76,9.76,-0.00,0.00,-0.00,-0.23,0.46,9.79,-0.00,-0.00,0.00,0.16,0.36,9.81,0.00,-0.00,0.00,2.00,0.29,9.62,0.0000,0.0000,0.00
22902290,-0.00,0.00,-0.00,-0.26,0.52,9.81,0.00,-0.00,0.00,-0.05,0.76,9.83,0.00,-0.00,0.00,-0.20,0.50,9.81,-0.00,-0.00,-0.00,0.16,0.39,9.87,0.00,0.00,-0.00,2.02,0.29,9.64,0.0000,0.0000,0.00
22912290,-0.00,0.00,0.00,-0.27,0.52,9.82,-0.00,0.00,-0.00,-0.03,0.79,9.78,0.00,0.00,-0.00,-0.20,0.48,9.74,-0.00,-0.00,-0.00,0.16,0.35,9.84,-0.00,-0.00,0.00,1.94,0.28,9.62,0.0000,0.0000,0.00
22922290,0.00,-0.00,-0.00,-0.25,0.48,9.76,-0.00,0.00,0.00,-0.05,0.76,9.80,-0.00,0.00,0.00,-0.17,0.48,9.78,0.00,0.00,-0.00,0.12,0.33,9.85,-0.00,0.00,-0.00,1.97,0.32,9.62,0.0000,0.0000,0.00
22932290,0.00,0.00,0.00,-0.26,0.49,9.82,-0.00,0.00,-0.00,-0.04,0.76,9.78,0.00,0.00,0.00,-0.19,0.52,9.82,0.00,-0.00,0.00,0.09,0.36,9.87,-0.00,-0.00,-0.00,2.00,0.34,9.62,0.0000,0.0000,0.00
22942290,0.00,-0.00,0.00,-0.26,0.51,9.78,-0.00,0.00,-0.00,-0.07,0.77,9.78,-0.00,0.00,-0.00,-0.18,0.47,9.82,0.00,-0.00,0.00,0.14,0.39,9.85,-0.00,-0.00,0.00,1.97,0.30,9.63,0.0000,0.0000,0.00
22952290,0.00,0.00,-0.00,-0.26,0.48,9.77,0.00,-0.00,0.00,-0.06,0.78,9.79,-0.00,0.00,-0.00,-0.19,0.50,9.78,-0.00,0.00,-0.00,0.16,0.33,9.84,-0.00,-0.00,-0.00,1.98,0.34,9.67,0.0000,0.0000,0.00
22962290,0.00,0.00,0.00,-0.29,0.48,9.80,0.00,-0.00,0.00,-0.04,0.75,9.75,0.00,-0.00,-0.00,-0.20,0.49,9.75,-0.00,0.00,0.00,0.12,0.35,9.85,0.00,-0.00,0.00,2.04,0.31,9.64,0.0000,0.0000,0.00
22972290,0.00,-0.00,0.00,-0.26,0.49,9.80,-0.00,-0.00,0.00,-0.06,0.76,9.78,0.00,-0.00,0.00,-0.22,0.49,9.74,0.00,0.00,0.00,0.18,0.35,9.86,0.00,-0.00,0.00,1.95,0.25,9.65,0.0000,0.0000,0.00
22982290,0.00,-0.00,0.00,-0.27,0.56,9.82,-0.00,0.00,-0.00,-0.06,0.76,9.80,-0.00,-0.00,-0.00,-0.20,0.47,9.81,0.00,-0.00,-0.00,0.15,0.36,9.86,0.00,0.00,0.00,1.99,0.31,9.63,0.0000,0.0000,0.00
22992290,-0.00,0.00,-0.00,-0.27,0.50,9.79,0.00,-0.00,0.00,-0.01,0.76,9.75,0.00,-0.00,-0.00,-0.22,0.47,9.81,-0.00,-0.00,0.00,0.10,0.38,9.84,0.00,-0.00,0.00,2.00,0.31,9.67,0.0000,0.0000,0.00
23002290,0.00,-0.00,0.00,-0.27,0.49,9.78,-0.00,0.00,0.00,-0.06,0.76,9.78,0.00,0.00,-0.00,-0.21,0.46,9.78,-0.00,-0.00,0.00,0.13,0.34,9.85,0.00,-0.00,0.00,1.98,0.32,9.66,0.0000,0.0000,0.00
23012290,-0.00,0.00,-0.00,-0.24,0.50,9.81,0.00,-0.00,0.00,-0.05,0.76,9.81,0.00,0.00,-0.00,-0.19,0.47,9.81,-0.00,-0.00,0.00,0.13,0.37,9.85,-0.00,0.00,-0.00,2.01,0.33,9.62,0.0000,0.0000,0.00
23022290,0.00,0.00,0.00,-0.29,0.48,9.82,-0.00,0.00,-0.00,-0.03,0.75,9.82,0.00,0.00,-0.00,-0.22,0.48,9.80,-0.00,-0.00,0.00,0.11,0.36,9.86,-0.00,-0.00,-0.00,2.01,0.33,9.60,0.0000,0.0000,0.00
23032290,0.00,0.00,-0.00,-0.28,0.51,9.83,-0.00,0.00,-0.00,-0.03,0.74,9.78,-0.00,-0.00,0.00,-0.22,0.48,9.77,-0.00,0.00,-0.00,0.13,0.35,9.85,-0.00,0.00,0.00,2.02,0.29,9.65,0.0000,0.0000,0.00
23042290,-0.00,-0.00,0.00,-0.27,0.50,9.79,0.00,-0.00,-0.00,-0.05,0.74,9.77,0.00,0.00,0.00,-0.21,0.49,9.79,-0.00,-0.00,-0.00,0.10,0.36,9.86,-0.00,-0.00,-0.00,1.98,0.31,9.66,0.0000,0.0000,0.00
23052290,-0.00,0.00,0.00,-0.28,0.49,9.82,-0.00,0.00,-0.00,-0.03,0.76,9.77,-0.00,-0.00,-0.00,-0.21,0.49,9.81,-0.00,-0.00,0.00,0.13,0.33,9.83,-0.00,-0.00,-0.00,2.00,0.32,9.58,0.0000,0.0000,0.00
23062290,0.00,-0.00,-0.00,-0.29,0.52,9.84,-0.00,0.00,-0.00,-0.06,0.76,9.76,-0.00,-0.00,-0.00,-0.21,0.49,9.78,-0.00,-0.00,0.00,0.11,0.38,9.80,0.00,0.00,-0.00,1.99,0.30,9.66,0.0000,0.0000,0.00
23072290,-0.00,-0.00,0.00,-0.27,0.49,9.80,0.00,0.00,-0.00,-0.06,0.76,9.79,0.00,-0.00,0.00,-0.20,0.45,9.79,0.00,-0.00,0.00,0.13,0.35,9.83,0.00,0.00,-0.00,1.99,0.32,9.63,0.0000,0.0000,0.00
23082290,0.00,-0.00,-0.00,-0.25,0.51,9.81,-0.00,-0.00,0.00,-0.03,0.77,9.80,-0.00,0.00,0.00,-0.20,0.47,9.78,-0.00,0.00,-0.00,0.13,0.36,9.84,-0.00,-0.00,0.00,1.97,0.34,9.62,0.0000,0.0000,0.00
23092290,-0.00,-0.00,0.00,-0.28,0.51,9.82,-0.00,0.00,-0.00,-0.02,0.77,9.76,-0.00,0.00,-0.00,-0.20,0.46,9.82,-0.00,0.00,-0.00,0.15,0.36,9.80,-0.00,0.00,-0.00,1.98,0.32,9.64,0.0000,0.0000,0.00
23102290,-0.00,0.00,-0.00,-0.26,0.53,9.81,-0.00,0.00,0.00,-0.05,0.77,9.78,-0.00,-0.00,0.00,-0.19,0.47,9.78,-0.00,0.00,-0.00,0.09,0.35,9.82,0.00,0.00,0.00,1.98,0.30,9.65,0.0000,0.0000,0.00
23112290,0.00,-0.00,0.00,-0.23,0.48,9.78,0.00,-0.00,0.00,-0.01,0.79,9.78,-0.00,0.00,-0.00,-0.18,0.45,9.80,0.00,-0.00,0.00,0.14,0.37,9.86,-0.00,-0.00,-0.00,1.95,0.30,9.62,0.0000,0.0000,0.00
23122290,0.00,-0.00,0.00,-0.22,0.50,9.81,0.00,-0.00,-0.00,-0.01,0.76,9.81,0.00,-0.00,-0.00,-0.23,0.48,9.79,0.00,0.00,-0.00,0.14,0.41,9.86,0.00,0.00,-0.00,1.99,0.32,9.65,0.0000,0.0000,0.00
23132290,-0.00,-0.00,0.00,-0.26,0.49,9.84,0.00,-0.00,-0.00,-0.06,0.75,9.79,0.00,-0.00,0.00,-0.20,0.51,9.81,-0.00,0.00,-0.00,0.13,0.35,9.88,-0.00,0.00,-0.00,2.01,0.30,9.68,0.0000,0.0000,0.00
23142290,-0.00,-0.00,-0.00,-0.29,0.51,9.79,-0.00,0.00,-0.00,-0.01,0.75,9.73,0.00,0.00,-0.00,-0.22,0.46,9.77,-0.00,-0.00,-0.00,0.16,0.34,9.85,-0.00,-0.00,0.00,1.98,0.29,9.62,0.0000,0.0000,0.00
23152290,-0.00,0.00,-0.00,-0.24,0.47,9.83,0.00,0.00,0.00,-0.03,0.78,9.76,0.00,-0.00,0.00,-0.19,0.45,9.82,0.00,0.00,-0.00,0.14,0.34,9.85,-0.00,-0.00,0.00,1.99,0.29,9.63,0.0000,0.0000,0.00
23162290,-0.00,0.00,-0.00,-0.28,0.49,9.80,-0.00,-0.00,0.00,-0.06,0.77,9.77,-0.00,0.00,0.00,-0.20,0.51,9.79,-0.00,0.00,-0.00,0.11,0.35,9.86,0.00,0.00,-0.00,1.97,0.33,9.60,0.0000,0.0000,0.00
23172290,0.00,-0.00,-0.00,-0.25,0.50,9.78,0.00,-0.00,-0.00,0.00,0.78,9.75,0.00,-0.00,-0.00,-0.19,0.45,9.81,0.00,0.00,-0.00,0.15,0.35,9.84,-0.00,-0.00,0.00,1.99,0.26,9.63,0.0000,0.0000,0.00
23182290,0.00,-0.00,-0.00,-0.26,0.50,9.80,0.00,0.00,-0.00,-0.05,0.77,9.82,0.00,-0.00,0.00,-0.23,0.48,9.81,-0.00,0.00,-0.00,0.13,0.35,9.89,0.00,-0.00,0.00,1.95,0.32,9.65,0.0000,0.0000,0.00
23192290,-0.00,0.00,-0.00,-0.31,0.53,9.82,-0.00,0.00,-0.00,-0.06,0.77,9.81,0.00,-0.00,0.00,-0.14,0.48,9.82,0.00,0.00,0.00,0.10,0.33,9.82,0.00,-0.00,-0.00,2.03,0.29,9.63,0.0000,0.0000,0.00
23202290,0.00,-0.00,-0.00,-0.25,0.47,9.79,0.00,-0.00,0.00,0.02,0.77,9.81,-0.00,-0.00,-0.00,-0.17,0.48,9.77,-0.00,-0.00,0.00,0.13,0.35,9.82,0.00,0.00,-0.00,1.99,0.34,9.64,0.0000,0.0000,0.00
23212290,-0.00,0.00,-0.00,-0.28,0.51,9.81,0.00,-0.00,0.00,-0.03,0.76,9.75,-0.00,-0.00,-0.00,-0.20,0.46,9.82,0.00,0.00,0.00,0.12,0.37,9.83,-0.00,-0.00,-0.00,2.02,0.31,9.64,0.0000,0.0000,0.00
23222290,-0.00,-0.00,0.00,-0.25,0.50,9.77,0.00,0.00,0.00,-0.02,0.75,9.75,0.00,-0.00,-0.00,-0.19,0.49,9.77,-0.00,0.00,-0.00,0.13,0.36,9.87,-0.00,-0.00,0.00,1.96,0.33,9.62,0.0000,0.0000,0.00
23232290,-0.00,0.00,0.00,-0.24,0.53,9.82,0.00,0.00,-0.00,-0.06,0.77,9.80,0.00,0.00,-0.00,-0.20,0.48,9.78,0.00,0.00,0.00,0.14,0.36,9.81,0.00,0.00,0.00,2.00,0.29,9.62,0.0000,0.0000,0.00
23242290,-0.00,-0.00,-0.00,-0.29,0.50,9.84,0.00,-0.00,0.00,-0.06,0.78,9.81,0.00,-0.00,0.00,-0.20,0.49,9.76,0.00,-0.00,-0.00,0.14,0.38,9.86,0.00,0.00,0.00,1.97,0.33,9.65,0.0000,0.0000,0.00
23252290,0.00,-0.00,-0.00,-0.25,0.50,9.81,0.00,-0.00,0.00,-0.01,0.76,9.80,-0.00,0.00,0.00,-0.17,0.49,9.77,-0.00,0.00,-0.00,0.12,0.35,9.86,0.00,-0.00,0.00,1.98,0.32,9.66,0.0000,0.0000,0.00
23262290,-0.00,0.00,-0.00,-0.26,0.52,9.82,0.00,-0.00,0.00,-0.05,0.75,9.76,-0.00,-0.00,-0.00,-0.19,0.48,9.76,-0.00,0.00,-0.00,0.16,0.38,9.84,-0.00,-0.00,-0.00,2.00,0.27,9.61,0.0000,0.0000,0.00
23272290,-0.00,0.00,-0.00,-0.25,0.48,9.79,-0.00,0.00,0.00,-0.02,0.76,9.80,-0.00,-0.00,-0.00,-0.20,0.46,9.78,-0.00,0.00,0.00,0.13,0.32,9.85,-0.00,0.00,0.00,1.99,0.26,9.63,0.0000,0.0000,0.00
23282290,0.00,-0.00,0.00,-0.23,0.48,9.76,-0.00,0.00,0.00,-0.05,0.74,9.81,0.00,0.00,-0.00,-0.18,0.46,9.78,-0.00,0.00,-0.00,0.17,0.32,9.85,-0.00,0.00,-0.00,2.01,0.29,9.62,0.0000,0.0000,0.00
23292290,0.00,0.00,0.00,-0.26,0.50,9.83,0.00,-0.00,0.00,-0.02,0.77,9.81,0.00,-0.00,0.00,-0.20,0.45,9.80,0.00,0.00,0.00,0.15,0.33,9.83,0.00,-0.00,0.00,1.96,0.33,9.60,0.0000,0.0000,0.00
23302290,0.00,0.00,-0.00,-0.26,0.48,9.85,0.00,-0.00,-0.00,-0.08,0.79,9.80,0.00,0.00,0.00,-0.18,0.45,9.80,0.00,0.00,0.00,0.18,0.34,9.87,-0.00,-0.00,0.00,2.00,0.30,9.61,0.0000,0.0000,0.00
23312290,0.00,-0.00,-0.00,-0.29,0.49,9.77,-0.00,-0.00,-0.00,-0.04,0.76,9.79,0.00,0.00,-0.00,-0.21,0.44,9.78,-0.00,0.00,0.00,0.15,0.34,9.88,-0.00,0.00,0.00,2.01,0.27,9.66,0.0000,0.0000,0.00
23322290,0.00,-0.00,-0.00,-0.23,0.46,9.83,-0.00,0.00,-0.00,-0.06,0.75,9.77,-0.00,-0.00,-0.00,-0.19,0.47,9.80,-0.00,0.00,0.00,0.14,0.34,9.83,-0.00,0.00,0.00,1.97,0.28,9.64,0.0000,0.0000,0.00
23332290,0.00,-0.00,-0.00,-0.28,0.48,9.82,-0.00,-0.00,-0.00,-0.02,0.76,9.80,0.00,-0.00,0.00,-0.20,0.49,9.80,-0.00,-0.00,-0.00,0.15,0.34,9.86,-0.00,0.00,-0.00,2.00,0.28,9.63,0.0000,0.0000,0.00
23342290,0.00,-0.00,0.00,-0.29,0.50,9.80,0.00,-0.00,-0.00,-0.05,0.74,9.76,0.00,0.00,-0.00,-0.22,0.43,9.76,0.00,0.00,-0.00,0.10,0.34,9.83,0.00,-0.00,-0.00,1.95,0.29,9.64,0.0000,0.0000,0.00
23352290,-0.00,-0.00,0.00,-0.27,0.51,9.82,0.00,-0.00,-0.00,-0.09,0.77,9.81,-0.00,-0.00,0.00,-0.22,0.47,9.79,-0.00,0.00,0.00,0.14,0.33,9.82,0.00,0.00,-0.00,2.00,0.32,9.65,0.0000,0.0000,0.00
23362290,-0.00,-0.00,-0.00,-0.23,0.52,9.83,-0.00,-0.00,0.00,-0.04,0.77,9.73,0.00,-0.00,-0.00,-0.20,0.48,9.80,-0.00,0.00,-0.00,0.14,0.35,9.84,-0.00,-0.00,-0.00,2.01,0.29,9.64,0.0000,0.0000,0.00
23372290,-0.00,-0.00,0.00,-0.24,0.51,9.80,0.00,0.00,0.00,-0.02,0.72,9.75,-0.00,-0.00,-0.00,-0.17,0.49,9.81,-0.00,0.00,-0.00,0.17,0.35,9.84,0.00,-0.00,-0.00,1.98,0.31,9.67,0.0000,0.0000,0.00
23382290,0.00,0.00,-0.00,-0.25,0.49,9.81,-0.00,0.00,-0.00,-0.02,0.78,9.80,0.00,-0.00,-0.00,-0.20,0.48,9.78,-0.00,0.00,-0.00,0.16,0.37,9.84,-0.00,0.00,0.00,1.98,0.29,9.62,0.0000,0.0000,0.00
23392290,0.00,0.00,-0.00,-0.28,0.52,9.77,0.00,0.00,0.00,-0.05,0.77,9.77,-0.00,0.00,-0.00,-0.21,0.46,9.80,0.00,-0.00,0.00,0.13,0.35,9.84,-0.00,0.00,-0.00,2.00,0.28,9.68,0.0000,0.0000,0.00
23402290,0.00,-0.00,-0.00,-0.26,0.53,9.82,-0.00,0.00,0.00,-0.04,0.77,9.75,-0.00,-0.00,0.00,-0.20,0.47,9.79,-0.00,-0.00,-0.00,0.18,0.35,9.84,0.00,0.00,0.00,1.99,0.28,9.61,0.0000,0.0000,0.00
23412290,-0.00,0.00,-0.00,-0.27,0.50,9.83,0.00,-0.00,0.00,-0.05,0.78,9.79,0.00,-0.00,-0.00,-0.21,0.45,9.81,0.00,0.00,0.00,0.12,0.34,9.81,-0.00,0.00,0.00,2.01,0.27,9.67,0.0000,0.0000,0.00
23422290,-0.00,-0.00,0.00,-0.27,0.47,9.84,-0.00,0.00,0.00,-0.03,0.76,9.78,-0.00,0.00,0.00,-0.18,0.43,9.79,-0.00,-0.00,-0.00,0.13,0.34,9.81,-0.00,-0.00,-0.00,1.99,0.28,9.66,0.0000,0.0000,0.00
23432290,-0.00,-0.00,-0.00,-0.26,0.53,9.78,-0.00,0.00,-0.00,-0.04,0.76,9.75,0.00,0.00,-0.00,-0.19,0.47,9.79,0.00,0.00,-0.00,0.12,0.32,9.79,-0.00,0.00,-0.00,1.96,0.33,9.66,0.0000,0.0000,0.00
23442290,0.00,0.00,0.00,-0.25,0.49,9.78,-0.00,0.00,-0.00,-0.05,0.71,9.77,-0.00,-0.00,-0.00,-0.17,0.44,9.80,0.00,0.00,-0.00,0.15,0.35,9.84,-0.00,-0.00,-0.00,1.97,0.30,9.62,0.0000,0.0000,0.00
23452290,0.00,-0.00,0.00,-0.25,0.51,9.80,-0.00,-0.00,-0.00,-0.04,0.75,9.75,-0.00,-0.00,0.00,-0.21,0.48,9.81,-0.00,0.00,0.00,0.11,0.39,9.82,-0.00,0.00,-0.00,1.98,0.29,9.64,0.0000,0.0000,0.00
23462290,-0.00,0.00,-0.00,-0.26,0.52,9.84,0.00,0.00,0.00,-0.06,0.77,9.80,0.00,0.00,-0.00,-0.16,0.46,9.77,-0.00,0.00,0.00,0.13,0.35,9.87,0.00,0.00,-0.00,1.95,0.32,9.62,0.0000,0.0000,0.00
23472290,-0.00,0.00,-0.00,-0.29,0.51,9.80,0.00,-0.00,-0.00,-0.04,0.77,9.81,0.00,-0.00,0.00,-0.17,0.46,9.73,0.00,0.00,-0.00,0.13,0.33,9.87,-0.00,0.00,-0.00,1.96,0.29,9.67,0.0000,0.0000,0.00
23482290,-0.00,-0.00,-0.00,-0.29,0.48,9.81,-0.00,0.00,0.00,-0.07,0.75,9.80,0.00,0.00,-0.00,-0.23,0.47,9.76,-0.00,-0.00,-0.00,0.14,0.36,9.84,-0.00,0.00,-0.00,1.97,0.27,9.60,0.0000,0.0000,0.00
23492290,-0.00,-0.00,0.00,-0.27,0.50,9.84,0.00,0.00,-0.00,-0.05,0.73,9.76,-0.00,0.00,-0.00,-0.18,0.48,9.77,0.00,0.00,-0.00,0.10,0.34,9.84,0.00,-0.00,-0.00,1.96,0.29,9.65,0.0000,0.0000,0.00
23502290,-0.00,-0.00,-0.00,-0.28,0.50,9.80,-0.00,0.00,0.00,-0.06,0.74,9.76,-0.00,-0.00,-0.00,-0.20,0.50,9.79,-0.00,0.00,-0.00,0.16,0.36,9.84,-0.00,-0.00,0.00,2.01,0.31,9.63,0.0000,0.0000,0.00
23512290,-0.00,0.00,0.00,-0.25,0.47,9.80,0.00,-0.00,-0.00,-0.05,0.78,9.74,-0.00,-0.00,-0.00,-0.17,0.47,9.80,-0.00,-0.00,-0.00,0.13,0.31,9.84,0.00,0.00,-0.00,1.97,0.28,9.62,0.0000,0.0000,0.00
23522290,-0.00,0.00,-0.00,-0.28,0.48,9.85,0.00,0.00,0.00,-0.04,0.73,9.75,-0.00,0.00,0.00,-0.20,0.48,9.81,-0.00,-0.00,0.00,0.13,0.34,9.85,0.00,0.00,-0.00,1.96,0.34,9.66,0.0000,0.0000,0.00
23532290,0.00,-0.00,0.00,-0.29,0.53,9.82,-0.00,0.00,0.00,-0.06,0.76,9.78,-0.00,0.00,0.00,-0.18,0.45,9.78,-0.00,-0.00,-0.00,0.13,0.34,9.85,-0.00,-0.00,-0.00,2.00,0.30,9.64,0.0000,0.0000,0.00
23542290,0.00,-0.00,0.00,-0.25,0.53,9.80,-0.00,0.00,-0.00,-0.06,0.79,9.82,-0.00,-0.00,-0.00,-0.23,0.47,9.82,0.00,0.00,-0.00,0.15,0.35,9.85,0.00,0.00,0.00,1.98,0.30,9.59,0.0000,0.0000,0.00
23552290,-0.00,0.00,0.00,-0.27,0.51,9.79,-0.00,0.00,0.00,-0.05,0.79,9.79,0.00,0.00,0.00,-0.19,0.47,9.78,0.00,0.00,0.00,0.14,0.33,9.83,0.00,0.00,0.00,2.00,0.28,9.63,0.0000,0.0000,0.00
23562290,0.00,-0.00,-0.00,-0.27,0.49,9.78,-0.00,0.00,0.00,-0.04,0.74,9.77,-0.00,-0.00,0.00,-0.19,0.45,9.76,-0.00,0.00,0.00,0.10,0.36,9.86,-0.00,-0.00,0.00,1.97,0.30,9.64,0.0000,0.0000,0.00
23572290,-0.00,-0.00,-0.00,-0.26,0.51,9.81,0.00,-0.00,0.00,-0.05,0.76,9.80,-0.00,0.00,-0.00,-0.14,0.44,9.78,0.00,0.00,0.00,0.13,0.34,9.85,0.00,0.00,0.00,2.00,0.27,9.61,0.0000,0.0000,0.00
23582290,-0.00,0.00,-0.00,-0.29,0.49,9.84,0.00,0.00,-0.00,-0.03,0.75,9.80,-0.00,-0.00,0.00,-0.20,0.50,9.80,-0.00,-0.00,0.00,0.12,0.34,9.88,-0.00,0.00,0.00,1.97,0.28,9.64,0.0000,0.0000,0.00
23592290,-0.00,0.00,0.00,-0.28,0.47,9.79,-0.00,-0.00,0.00,-0.03,0.74,9.77,-0.00,0.00,-0.00,-0.20,0.48,9.78,-0.00,0.00,-0.00,0.17,0.33,9.84,-0.00,0.00,0.00,2.00,0.28,9.59,0.0000,0.0000,0.00
23602290,-0.00,-0.00,-0.00,-0.28,0.52,9.77,-0.00,-0.00,0.00,-0.06,0.80,9.78,-0.00,0.00,-0.00,-0.17,0.46,9.77,0.00,0.00,0.00,0.13,0.36,9.83,-0.00,0.00,0.00,1.97,0.31,9.63,0.0000,0.0000,0.00
23612290,-0.00,-0.00,0.00,-0.29,0.50,9.82,-0.00,-0.00,-0.00,-0.06,0.75,9.76,-0.00,-0.00,-0.00,-0.18,0.48,9.78,0.00,-0.00,0.00,0.14,0.32,9.83,-0.00,0.00,0.00,1.97,0.29,9.62,0.0000,0.0000,0.00
23622290,0.00,-0.00,0.00,-0.25,0.47,9.80,0.00,-0.00,-0.00,-0.04,0.78,9.78,-0.00,-0.00,0.00,-0.20,0.47,9.81,-0.00,0.00,-0.00,0.14,0.36,9.84,0.00,0.00,-0.00,2.00,0.26,9.63,0.0000,0.0000,0.00
23632290,-0.00,-0.00,0.00,-0.29,0.50,9.81,0.00,-0.00,0.00,-0.04,0.74,9.73,-0.00,0.00,0.00,-0.18,0.51,9.76,0.00,0.00,-0.00,0.10,0.37,9.82,-0.00,-0.00,-0.00,1.96,0.30,9.61,0.0000,0.0000,0.00
23642290,-0.00,0.00,0.00,-0.29,0.51,9.80,-0.00,-0.00,-0.00,-0.03,0.76,9.80,-0.00,-0.00,0.00,-0.20,0.48,9.78,-0.00,0.00,-0.00,0.13,0.35,9.84,-0.00,0.00,-0.00,2.00,0.30,9.65,0.0000,0.0000,0.00
23652290,-0.00,0.00,-0.00,-0.26,0.52,9.78,-0.00,0.00,0.00,-0.04,0.74,9.75,-0.00,-0.00,0.00,-0.20,0.49,9.81,-0.00,0.00,0.00,0.17,0.36,9.84,0.00,-0.00,0.00,2.00,0.28,9.62,0.0000,0.0000,0.00
23662290,-0.00,-0.00,0.00,-0.30,0.50,9.83,-0.00,0.00,-0.00,-0.06,0.78,9.81,0.00,0.00,-0.00,-0.19,0.47,9.77,0.00,0.00,-0.00,0.16,0.35,9.83,-0.00,-0.00,-0.00,1.98,0.26,9.64,0.0000,0.0000,0.00
23672290,-0.00,0.00,0.00,-0.28,0.50,9.80,0.00,0.00,0.00,-0.04,0.77,9.79,0.00,0.00,-0.00,-0.18,0.47,9.78,0.00,0.00,-0.00,0.14,0.34,9.84,0.00,-0.00,-0.00,1.96,0.29,9.64,0.0000,0.0000,0.00
23682290,-0.00,-0.00,0.00,-0.23,0.51,9.82,0.00,-0.00,0.00,-0.06,0.76,9.78,0.00,-0.00,-0.00,-0.20,0.47,9.80,-0.00,-0.00,-0.00,0.15,0.37,9.83,-0.00,0.00,0.00,1.99,0.31,9.64,0.0000,0.0000,0.00
23692290,-0.00,0.00,-0.00,-0.29,0.52,9.81,-0.00,0.00,0.00,-0.05,0.75,9.77,-0.00,0.00,-0.00,-0.19,0.48,9.79,0.00,-0.00,-0.00,0.13,0.37,9.86,-0.00,0.00,0.00,2.02,0.31,9.66,0.0000,0.0000,0.00
23702290,0.00,-0.00,-0.00,-0.26,0.48,9.81,-0.00,-0.00,0.00,-0.06,0.76,9.75,-0.00,0.00,-0.00,-0.19,0.47,9.81,-0.00,0.00,0.00,0.14,0.33,9.85,-0.00,-0.00,0.00,1.99,0.31,9.63,0.0000,0.0000,0.00
23712290,-0.00,-0.00,0.00,-0.29,0.47,9.82,0.00,-0.00,0.00,-0.03,0.77,9.77,-0.00,-0.00,-0.00,-0.19,0.52,9.79,-0.00,0.00,0.00,0.16,0.32,9.81,-0.00,-0.00,0.00,1.97,0.28,9.63,0.0000,0.0000,0.00
23722290,-0.00,0.00,0.00,-0.28,0.47,9.85,-0.00,0.00,0.00,-0.06,0.78,9.79,-0.00,0.00,-0.00,-0.22,0.48,9.82,-0.00,-0.00,-0.00,0.16,0.33,9.84,-0.00,-0.00,-0.00,1.97,0.30,9.61,0.0000,0.0000,0.00
23732290,-0.00,0.00,-0.00,-0.27,0.54,9.83,0.00,0.00,0.00,-0.06,0.76,9.76,0.00,-0.00,-0.00,-0.20,0.48,9.78,-0.00,-0.00,-0.00,0.15,0.35,9.85,-0.00,0.00,-0.00,1.97,0.29,9.66,0.0000,0.0000,0.00
23742290,-0.00,0.00,-0.00,-0.29,0.51,9.80,-0.00,0.00,-0.00,0.00,0.76,9.77,-0.00,0.00,0.00,-0.21,0.43,9.80,0.00,0.00,0.00,0.17,0.34,9.84,-0.00,-0.00,-0.00,1.98,0.30,9.59,0.0000,0.0000,0.00
23752290,-0.00,0.00,0.00,-0.26,0.48,9.85,0.00,0.00,0.00,-0.05,0.76,9.79,0.00,0.00,0.00,-0.18,0.51,9.82,-0.00,-0.00,-0.00,0.11,0.36,9.85,0.00,0.00,-0.00,1.98,0.28,9.63,0.0000,0.0000,0.00
23762290,0.00,-0.00,-0.00,-0.27,0.49,9.80,-0.00,0.00,-0.00,-0.04,0.76,9.80,-0.00,-0.00,-0.00,-0.17,0.48,9.82,-0.00,-0.00,-0.00,0.15,0.31,9.83,-0.00,0.00,-0.00,1.97,0.33,9.62,0.0000,0.0000,0.00
23772290,0.00,-0.00,-0.00,-0.24,0.48,9.77,0.00,-0.00,0.00,-0.04,0.74,9.78,-0.00,-0.00,-0.00,-0.19,0.47,9.79,0.00,0.00,0.00,0.13,0.32,9.87,-0.00,0.00,-0.00,2.02,0.31,9.62,0.0000,0.0000,0.00
23782290,0.00,0.00,0.00,-0.27,0.50,9.83,-0.00,0.00,-0.00,-0.02,0.77,9.76,0.00,0.00,-0.00,-0.21,0.48,9.78,0.00,-0.00,0.00,0.15,0.34,9.84,-0.00,-0.00,0.00,1.98,0.26,9.64,0.0000,0.0000,0.00
23792290,-0.00,0.00,0.00,-0.26,0.50,9.81,0.00,-0.00,0.00,-0.04,0.74,9.75,-0.00,-0.00,-0.00,-0.16,0.47,9.80,0.00,0.00,0.00,0.15,0.35,9.84,-0.00,0.00,0.00,1.98,0.33,9.67,0.0000,0.0000,0.00
23802290,0.00,-0.00,-0.00,-0.25,0.49,9.75,-0.00,0.00,-0.00,-0.07,0.76,9.76,-0.00,0.00,-0.00,-0.20,0.44,9.76,-0.00,0.00,-0.00,0.13,0.35,9.82,-0.00,0.00,-0.00,2.00,0.30,9.62,0.0000,0.0000,0.00
23812290,0.00,-0.00,-0.00,-0.27,0.46,9.80,0.00,-0.00,-0.00,-0.01,0.76,9.78,-0.00,-0.00,0.00,-0.20,0.45,9.80,0.00,0.00,-0.00,0.18,0.35,9.82,-0.00,0.00,-0.00,1.98,0.31,9.66,0.0000,0.0000,0.00
23822290,-0.00,0.00,0.00,-0.28,0.49,9.78,0.00,0.00,-0.00,-0.03,0.72,9.76,0.00,0.00,0.00,-0.23,0.47,9.78,0.00,-0.00,0.00,0.15,0.37,9.86,-0.00,-0.00,-0.00,1.97,0.31,9.63,0.0000,0.0000,0.00
23832290,0.00,-0.00,0.00,-0.26,0.47,9.79,0.00,0.00,-0.00,-0.02,0.73,9.79,-0.00,0.00,-0.00,-0.19,0.47,9.78,0.00,-0.00,-0.00,0.09,0.36,9.85,0.00,0.00,-0.00,1.98,0.29,9.61,0.0000,0.0000,0.00
23842290,0.00,0.00,-0.00,-0.26,0.48,9.78,-0.00,0.00,-0.00,0.00,0.75,9.78,-0.00,0.00,-0.00,-0.21,0.53,9.78,0.00,0.00,-0.00,0.14,0.35,9.85,-0.00,-0.00,-0.00,2.02,0.31,9.67,0.0000,0.0000,0.00
23852290,-0.00,0.00,-0.00,-0.27,0.51,9.82,-0.00,-0.00,-0.00,-0.03,0.74,9.79,-0.00,-0.00,0.00,-0.19,0.51,9.81,0.00,-0.00,0.00,0.12,0.34,9.84,-0.00,0.00,0.00,1.94,0.31,9.68,0.0000,0.0000,0.00
23862290,0.00,-0.00,-0.00,-0.29,0.48,9.82,0.00,0.00,-0.00,-0.05,0.77,9.79,0.00,0.00,0.00,-0.17,0.47,9.76,0.00,0.00,-0.00,0.14,0.35,9.85,0.00,0.00,-0.00,1.99,0.30,9.62,0.0000,0.0000,0.00
23872290,0.00,-0.00,-0.00,-0.26,0.48,9.82,-0.00,0.00,0.00,-0.06,0.80,9.78,0.00,-0.00,-0.00,-0.21,0.48,9.82,0.00,0.00,0.00,0.12,0.35,9.84,0.00,0.00,-0.00,2.00,0.33,9.63,0.0000,0.0000,0.00
23882290,-0.00,-0.00,0.00,-0.27,0.50,9.80,0.00,-0.00,0.00,-0.05,0.77,9.82,0.00,0.00,-0.00,-0.20,0.46,9.76,0.00,-0.00,0.00,0.14,0.33,9.85,0.00,0.00,-0.00,1.99,0.30,9.61,0.0000,0.0000,0.00
23892290,-0.00,-0.00,-0.00,-0.28,0.45,9.81,0.00,-0.00,-0.00,-0.05,0.80,9.79,-0.00,-0.00,-0.00,-0.19,0.49,9.80,0.00,-0.00,0.00,0.13,0.36,9.82,-0.00,0.00,-0.00,1.99,0.28,9.66,0.0000,0.0000,0.00
23902290,-0.00,0.00,-0.00,-0.26,0.53,9.79,0.00,-0.00,-0.00,-0.06,0.77,9.77,0.00,0.00,0.00,-0.19,0.47,9.78,-0.00,-0.00,-0.00,0.12,0.31,9.86,0.00,0.00,-0.00,1.99,0.29,9.62,0.0000,0.0000,0.00
23912290,0.00,0.00,-0.00,-0.28,0.49,9.80,0.00,-0.00,0.00,-0.02,0.76,9.76,0.00,0.00,-0.00,-0.20,0.46,9.78,0.00,-0.00,-0.00,0.14,0.37,9.81,0.00,0.00,-0.00,1.98,0.32,9.67,0.0000,0.0000,0.00
23922290,0.00,0.00,-0.00,-0.22,0.51,9.82,-0.00,-0.00,0.00,-0.04,0.77,9.75,0.00,-0.00,0.00,-0.18,0.45,9.77,0.00,0.00,-0.00,0.07,0.34,9.84,0.00,-0.00,-0.00,2.00,0.31,9.66,0.0000,0.0000,0.00
23932290,0.00,-0.00,-0.00,-0.26,0.46,9.81,0.00,-0.00,-0.00,-0.06,0.77,9.78,0.00,0.00,0.00,-0.22,0.46,9.83,-0.00,0.00,-0.00,0.11,0.36,9.86,0.00,0.00,-0.00,2.01,0.30,9.64,0.0000,0.0000,0.00
23942290,-0.00,0.00,0.00,-0.25,0.49,9.84,-0.00,0.00,-0.00,-0.06,0.77,9.79,0.00,-0.00,-0.00,-0.23,0.45,9.80,0.00,0.00,0.00,0.15,0.34,9.82,0.00,-0.00,0.00,1.97,0.26,9.61,0.0000,0.0000,0.00
23952290,-0.00,-0.00,0.00,-0.28,0.49,9.78,-0.00,0.00,0.00,-0.07,0.78,9.75,0.00,0.00,0.00,-0.22,0.47,9.81,-0.00,-0.00,0.00,0.13,0.35,9.90,-0.00,0.00,-0.00,2.00,0.33,9.67,0.0000,0.0000,0.00
23962290,-0.00,-0.00,0.00,-0.26,0.47,9.81,-0.00,0.00,-0.00,-0.04,0.78,9.76,-0.00,-0.00,-0.00,-0.19,0.44,9.76,-0.00,-0.00,-0.00,0.11,0.33,9.82,-0.00,0.00,0.00,2.01,0.29,9.65,0.0000,0.0000,0.00
23972290,0.00,-0.00,0.00,-0.27,0.48,9.80,0.00,0.00,-0.00,-0.04,0.74,9.78,-0.00,-0.00,-0.00,-0.18,0.51,9.77,-0.00,0.00,0.00,0.14,0.34,9.84,0.00,-0.00,-0.00,2.00,0.32,9.63,0.0000,0.0000,0.00
23982290,0.00,-0.00,-0.00,-0.29,0.51,9.78,0.00,0.00,-0.00,-0.05,0.74,9.80,0.00,0.00,-0.00,-0.20,0.47,9.79,0.00,0.00,0.00,0.16,0.35,9.85,0.00,0.00,0.00,1.96,0.29,9.62,0.0000,0.0000,0.00
23992290,0.00,-0.00,-0.00,-0.28,0.47,9.81,0.00,-0.00,0.00,-0.02,0.78,9.79,-0.00,0.00,-0.00,-0.20,0.44,9.82,0.00,-0.00,0.00,0.13,0.36,9.84,-0.00,0.00,-0.00,1.96,0.30,9.67,0.0000,0.0000,0.00
24002290,-0.00,-0.00,-0.00,-0.23,0.45,9.82,0.00,-0.00,0.00,-0.05,0.75,9.77,0.00,0.00,-0.00,-0.18,0.49,9.79,-0.00,-0.00,-0.00,0.15,0.36,9.86,0.00,0.00,-0.00,1.96,0.31,9.61,0.0000,0.0000,0.00
24012290,-0.00,-0.00,0.00,-0.26,0.53,9.83,0.00,0.00,0.00,-0.06,0.77,9.79,-0.00,0.00,-0.00,-0.21,0.46,9.82,-0.00,-0.00,0.00,0.10,0.35,9.83,-0.00,-0.00,0.00,2.02,0.32,9.63,0.0000,0.0000,0.00
24022290,0.00,-0.00,-0.00,-0.27,0.49,9.81,-0.00,0.00,0.00,-0.04,0.73,9.78,-0.00,0.00,-0.00,-0.13,0.44,9.81,0.00,-0.00,0.00,0.15,0.36,9.83,0.00,0.00,-0.00,1.99,0.28,9.63,0.0000,0.0000,0.00
24032290,-0.00,-0.00,0.00,-0.24,0.49,9.78,-0.00,-0.00,0.00,-0.01,0.74,9.77,0.00,-0.00,-0.00,-0.19,0.45,9.76,-0.00,0.00,0.00,0.14,0.33,9.84,0.00,-0.00,0.00,1.98,0.26,9.65,0.0000,0.0000,0.00
24042290,0.00,-0.00,-0.00,-0.26,0.49,9.78,0.00,0.00,-0.00,-0.02,0.76,9.79,0.00,-0.00,-0.00,-0.18,0.44,9.80,-0.00,0.00,-0.00,0.15,0.35,9.85,0.00,0.00,-0.00,1.97,0.28,9.62,0.0000,0.0000,0.00
24052290,-0.00,-0.00,-0.00,-0.28,0.51,9.81,-0.00,-0.00,0.00,-0.03,0.77,9.80,0.00,-0.00,0.00,-0.22,0.45,9.82,-0.00,0.00,-0.00,0.14,0.35,9.87,0.00,0.00,-0.00,2.00,0.27,9.61,0.0000,0.0000,0.00
24062290,-0.00,0.00,-0.00,-0.27,0.50,9.80,-0.00,-0.00,0.00,-0.03,0.78,9.76,0.00,0.00,-0.00,-0.20,0.51,9.80,0.00,0.00,-0.00,0.17,0.35,9.84,0.00,0.00,-0.00,1.99,0.30,9.62,0.0000,0.0000,0.00
24072290,0.00,0.00,0.00,-0.28,0.48,9.81,0.00,0.00,0.00,0.00,0.77,9.80,0.00,0.00,-0.00,-0.16,0.46,9.80,0.00,-0.00,-0.00,0.14,0.31,9.79,0.00,-0.00,0.00,1.98,0.29,9.66,0.0000,0.0000,0.00
24082290,-0.00,0.00,0.00,-0.25,0.48,9.80,-0.00,-0.00,0.00,-0.01,0.73,9.74,0.00,0.00,-0.00,-0.23,0.47,9.79,0.00,-0.00,-0.00,0.09,0.36,9.85,-0.00,-0.00,-0.00,1.98,0.32,9.62,0.0000,0.0000,0.00
24092290,0.00,-0.00,-0.00,-0.25,0.51,9.77,0.00,-0.00,0.00,-0.06,0.77,9.81,0.00,0.00,-0.00,-0.23,0.45,9.76,0.00,-0.00,0.00,0.11,0.34,9.80,-0.00,0.00,-0.00,1.99,0.28,9.68,0.0000,0.0000,0.00
24102290,0.00,0.00,0.00,-0.25,0.50,9.83,0.01,-0.00,0.00,-0.06,0.76,9.80,0.00,-0.00,0.00,-0.21,0.47,9.80,0.00,0.00,-0.00,0.12,0.34,9.88,0.00,-0.00,-0.00,1.96,0.32,9.63,0.0000,0.0000,0.00
24112290,0.00,-0.00,0.00,-0.29,0.53,9.79,-0.00,-0.00,0.00,-0.09,0.76,9.80,0.00,0.00,-0.00,-0.20,0.48,9.87,0.00,0.00,-0.00,0.14,0.36,9.89,0.00,0.00,-0.00,1.95,0.28,9.57,0.0000,0.0000,0.00
24122290,0.00,-0.00,0.00,-0.28,0.50,9.79,0.00,-0.00,-0.00,-0.04,0.77,9.79,0.00,-0.00,0.00,-0.19,0.48,9.78,0.00,0.00,0.00,0.14,0.34,9.83,-0.00,0.00,0.00,1.97,0.30,9.62,0.0000,0.0000,0.00
24132290,0.00,-0.00,0.00,-0.23,0.49,9.82,0.00,-0.00,0.00,-0.02,0.80,9.78,-0.00,-0.00,-0.00,-0.22,0.45,9.78,0.00,-0.00,0.00,0.13,0.33,9.84,0.00,0.00,-0.00,2.02,0.31,9.62,0.0000,0.0000,0.00
24142290,0.00,-0.00,0.00,-0.28,0.54,9.80,-0.00,-0.00,0.00,-0.04,0.75,9.79,0.00,-0.00,0.00,-0.17,0.50,9.76,0.00,-0.00,-0.00,0.15,0.36,9.86,0.00,-0.00,-0.00,2.00,0.33,9.63,0.0000,0.0000,0.00
24152290,0.00,-0.00,0.00,-0.24,0.52,9.80,0.00,-0.00,-0.00,-0.04,0.74,9.76,0.00,0.00,0.00,-0.21,0.50,9.78,0.00,-0.00,-0.00,0.13,0.34,9.80,0.00,0.00,-0.00,2.00,0.31,9.63,0.0000,0.0000,0.00
24162290,-0.00,0.00,-0.00,-0.27,0.51,9.83,-0.00,0.00,-0.00,-0.07,0.75,9.77,0.00,0.00,0.00,-0.20,0.50,9.80,-0.00,-0.00,-0.00,0.16,0.36,9.86,-0.00,0.00,-0.00,1.98,0.32,9.68,0.0000,0.0000,0.00
24172290,-0.01,-0.00,-0.00,-0.22,0.52,9.83,-0.01,0.00,0.00,-0.02,0.75,9.80,-0.00,-0.00,0.00,-0.19,0.49,9.82,-0.01,0.00,-0.00,0.14,0.35,9.82,-0.01,0.00,0.00,2.03,0.34,9.61,0.0000,0.0000,0.00
24182290,-0.00,-0.00,-0.00,-0.28,0.52,9.73,-0.00,-0.00,0.00,-0.06,0.76,9.75,-0.01,0.00,0.00,-0.18,0.49,9.74,-0.00,0.00,0.00,0.14,0.35,9.82,-0.00,0.00,0.00,2.00,0.32,9.59,0.0000,0.0000,0.00
24192290,-0.00,0.00,0.00,-0.23,0.47,9.81,-0.00,0.00,-0.00,-0.04,0.78,9.77,-0.00,0.00,-0.00,-0.22,0.44,9.80,-0.00,-0.00,-0.00,0.18,0.34,9.80,-0.00,0.00,-0.00,1.99,0.27,9.57,0.0000,0.0000,0.00
24202290,0.00,0.00,0.00,-0.26,0.53,9.73,0.00,-0.00,-0.00,-0.02,0.78,9.73,0.00,0.00,-0.00,-0.22,0.48,9.80,0.00,0.00,-0.00,0.16,0.33,9.83,0.00,0.00,-0.00,2.00,0.28,9.64,0.0000,0.0000,0.00
24212290,0.00,0.00,-0.00,-0.25,0.45,9.83,0.00,0.00,0.00,-0.01,0.72,9.80,0.00,-0.00,-0.00,-0.15,0.47,9.78,0.00,-0.00,0.00,0.15,0.34,9.83,0.00,0.00,-0.00,2.00,0.33,9.69,0.0000,0.0000,0.00
24222290,-0.00,0.00,0.00,-0.25,0.55,9.85,-0.00,0.00,-0.00,-0.06,0.75,9.83,-0.00,0.00,-0.00,-0.21,0.49,9.80,-0.00,0.00,0.00,0.17,0.35,9.87,-0.00,-0.00,-0.00,2.00,0.35,9.65,0.0000,0.0000,0.00
24232290,-0.00,-0.00,-0.00,-0.26,0.46,9.78,-0.00,-0.00,-0.00,-0.05,0.73,9.79,-0.00,0.00,0.00,-0.21,0.47,9.80,-0.00,0.00,0.00,0.13,0.32,9.80,-0.00,0.00,-0.00,1.96,0.28,9.58,0.0000,0.0000,0.00
24242290,-0.00,0.00,-0.00,-0.29,0.50,9.78,-0.00,0.00,-0.00,-0.05,0.78,9.78,0.00,0.00,-0.00,-0.20,0.45,9.79,-0.00,0.00,0.00,0.11,0.33,9.83,0.00,0.00,-0.00,1.96,0.27,9.64,0.0000,0.0000,0.00
24252290,0.00,0.00,-0.00,-0.27,0.48,9.77,0.00,0.00,0.00,-0.03,0.72,9.76,-0.00,-0.00,0.00,-0.17,0.48,9.77,-0.00,-0.00,0.00,0.13,0.35,9.80,-0.00,-0.00,-0.00,1.98,0.30,9.63,0.0000,0.0000,0.00
24262290,0.00,-0.00,-0.00,-0.23,0.50,9.79,0.00,-0.00,-0.00,0.02,0.76,9.79,0.00,0.00,-0.00,-0.20,0.50,9.78,0.00,-0.00,0.00,0.13,0.30,9.82,0.00,-0.00,-0.00,1.99,0.31,9.60,0.0000,0.0000,0.00
24272290,-0.00,0.00,-0.00,-0.24,0.53,9.82,0.00,0.00,-0.00,-0.04,0.76,9.79,0.00,0.00,-0.00,-0.22,0.49,9.78,0.00,-0.00,0.00,0.15,0.35,9.85,0.00,0.00,0.00,2.00,0.30,9.65,0.0000,0.0000,0.00
24282290,0.00,-0.00,0.00,-0.26,0.52,9.80,0.00,-0.00,0.00,-0.03,0.81,9.74,-0.00,0.00,0.00,-0.20,0.46,9.78,-0.00,0.00,0.00,0.13,0.36,9.87,-0.00,-0.00,-0.00,2.00,0.31,9.64,0.0000,0.0000,0.00
24292290,-0.00,0.00,-0.00,-0.27,0.50,9.78,-0.00,0.00,0.00,0.00,0.78,9.77,-0.00,-0.00,-0.00,-0.18,0.49,9.80,-0.00,-0.00,-0.00,0.15,0.35,9.85,-0.00,-0.00,-0.00,2.02,0.30,9.60,0.0000,0.0000,0.00
24302290,-0.00,-0.00,0.00,-0.29,0.48,9.80,0.00,0.00,-0.00,-0.06,0.76,9.81,-0.00,-0.00,0.00,-0.22,0.49,9.79,0.00,0.00,-0.00,0.13,0.35,9.83,0.00,-0.00,-0.00,1.98,0.26,9.63,0.0000,0.0000,0.00
24312290,0.00,-0.00,-0.00,-0.25,0.50,9.78,0.00,-0.00,-0.00,-0.03,0.78,9.77,0.00,-0.00,-0.00,-0.15,0.46,9.71,0.00,0.00,0.00,0.15,0.35,9.85,0.00,0.00,-0.00,2.02,0.29,9.65,0.0000,0.0000,0.00
24322290,0.00,-0.00,0.00,-0.29,0.51,9.84,0.00,0.00,-0.00,-0.02,0.80,9.79,0.00,-0.00,0.00,-0.23,0.48,9.80,0.00,-0.00,0.00,0.18,0.33,9.86,0.00,-0.00,-0.00,1.98,0.32,9.65,0.0000,0.0000,0.00
24332290,-0.00,0.00,-0.00,-0.27,0.49,9.83,-0.00,0.00,0.00,-0.03,0.73,9.82,-0.00,0.00,-0.00,-0.19,0.50,9.80,-0.00,0.00,-0.00,0.13,0.37,9.83,0.00,-0.00,0.00,2.01,0.33,9.65,0.0000,0.0000,0.00
24342290,-0.00,-0.00,-0.00,-0.27,0.50,9.85,-0.00,-0.00,0.00,-0.04,0.79,9.82,-0.00,-0.00,-0.00,-0.19,0.45,9.78,-0.00,0.00,0.00,0.16,0.33,9.84,-0.00,0.00,-0.00,2.02,0.26,9.65,0.0000,0.0000,0.00
24352290,0.00,-0.00,-0.00,-0.28,0.54,9.80,-0.00,0.00,-0.00,-0.06,0.78,9.73,0.00,0.00,0.00,-0.21,0.48,9.78,-0.00,0.00,-0.00,0.11,0.35,9.86,-0.00,0.00,0.00,2.01,0.31,9.64,0.0000,0.0000,0.00
24362290,0.00,0.00,0.00,-0.27,0.50,9.80,0.00,-0.00,0.00,-0.07,0.79,9.79,0.00,-0.00,-0.00,-0.19,0.45,9.79,0.00,0.00,-0.00,0.15,0.35,9.82,0.00,0.00,-0.00,1.97,0.29,9.61,0.0000,0.0000,0.00
24372290,0.00,0.00,0.00,-0.26,0.50,9.82,0.00,0.00,0.00,-0.01,0.80,9.75,0.00,-0.00,-0.00,-0.24,0.42,9.82,0.00,-0.00,-0.00,0.19,0.34,9.86,0.00,-0.00,-0.00,1.98,0.27,9.64,0.0000,0.0000,0.00
24382290,0.00,0.00,-0.00,-0.28,0.48,9.80,0.00,-0.00,0.00,-0.06,0.73,9.80,0.00,0.00,0.00,-0.18,0.48,9.80,0.00,-0.00,-0.00,0.12,0.32,9.86,0.00,0.00,-0.00,1.99,0.32,9.63,0.0000,0.0000,0.00
24392290,0.00,-0.00,-0.00,-0.26,0.47,9.79,-0.00,-0.00,0.00,-0.05,0.75,9.79,0.00,-0.00,-0.00,-0.19,0.48,9.77,0.00,-0.00,0.00,0.13,0.33,9.81,0.00,-0.00,0.00,2.02,0.31,9.61,0.0000,0.0000,0.00
24402290,-0.00,0.00,-0.00,-0.28,0.48,9.84,0.00,0.00,0.00,-0.06,0.80,9.74,-0.00,-0.00,0.00,-0.16,0.46,9.78,0.00,-0.00,0.00,0.18,0.33,9.86,0.00,0.00,-0.00,1.97,0.27,9.68,0.0000,0.0000,0.00
24412290,-0.00,-0.00,0.00,-0.27,0.50,9.78,-0.00,0.00,-0.00,-0.06,0.76,9.72,-0.00,0.00,0.00,-0.19,0.48,9.77,0.00,-0.00,0.00,0.13,0.36,9.84,-0.00,0.00,-0.00,1.99,0.30,9.62,0.0000,0.0000,0.00
24422290,0.00,0.00,0.00,-0.24,0.47,9.78,0.00,0.00,0.00,-0.02,0.78,9.80,0.00,-0.00,-0.00,-0.17,0.50,9.80,0.00,0.00,0.00,0.16,0.35,9.84,-0.00,-0.00,-0.00,1.96,0.29,9.64,0.0000,0.0000,0.00
24432290,0.00,-0.00,-0.00,-0.27,0.47,9.80,-0.00,0.00,-0.00,-0.03,0.72,9.77,-0.00,-0.00,0.00,-0.19,0.47,9.76,-0.00,-0.00,0.00,0.13,0.35,9.84,-0.00,0.00,-0.00,2.01,0.31,9.64,0.0000,0.0000,0.00
24442290,0.00,0.00,0.00,-0.28,0.49,9.82,-0.00,0.00,0.00,-0.02,0.77,9.79,0.00,0.00,-0.00,-0.21,0.50,9.77,0.00,-0.00,0.00,0.08,0.35,9.82,-0.00,-0.00,-0.00,1.99,0.28,9.65,0.0000,0.0000,0.00
24452290,0.00,0.00,-0.00,-0.22,0.50,9.79,-0.00,0.00,-0.00,-0.04,0.75,9.78,0.00,-0.00,0.00,-0.18,0.47,9.76,0.00,0.00,-0.00,0.14,0.37,9.87,0.00,0.00,-0.00,1.98,0.27,9.63,0.0000,0.0000,0.00
24462290,0.00,0.00,-0.00,-0.27,0.54,9.83,-0.00,-0.00,-0.00,-0.05,0.79,9.80,-0.00,0.00,0.00,-0.21,0.48,9.77,0.00,0.00,-0.00,0.15,0.35,9.83,0.00,-0.00,0.00,1.97,0.32,9.61,0.0000,0.0000,0.00
24472290,-0.00,-0.00,-0.00,-0.23,0.51,9.78,-0.00,0.00,-0.00,-0.02,0.76,9.75,0.00,-0.00,-0.00,-0.20,0.49,9.76,-0.00,-0.00,-0.00,0.10,0.33,9.80,0.00,-0.00,-0.00,1.98,0.30,9.61,0.0000,0.0000,0.00
24482290,0.00,-0.00,-0.00,-0.30,0.49,9.79,0.00,0.00,0.00,-0.06,0.76,9.78,-0.00,0.00,-0.00,-0.20,0.47,9.77,-0.00,0.00,-0.00,0.14,0.36,9.88,0.00,-0.00,0.00,1.97,0.28,9.63,0.0000,0.0000,0.00
24492290,0.00,-0.00,-0.00,-0.27,0.52,9.83,-0.00,0.00,0.00,-0.06,0.75,9.77,0.00,-0.00,-0.00,-0.16,0.45,9.79,-0.00,0.00,-0.00,0.14,0.33,9.83,0.00,0.00,-0.00,1.98,0.27,9.63,0.0000,0.0000,0.00
24502290,0.00,-0.00,0.00,-0.26,0.52,9.82,0.00,-0.00,0.00,-0.06,0.74,9.78,0.00,-0.00,0.00,-0.23,0.50,9.76,-0.00,-0.00,0.00,0.15,0.34,9.83,0.00,-0.00,-0.00,2.00,0.28,9.65,0.0000,0.0000,0.00
24512290,0.00,-0.00,0.00,-0.27,0.52,9.80,-0.00,0.00,0.00,-0.06,0.74,9.81,0.00,0.00,-0.00,-0.19,0.44,9.79,0.00,0.00,-0.00,0.14,0.35,9.83,0.00,0.00,0.00,1.98,0.28,9.62,0.0000,0.0000,0.00
24522290,-0.00,-0.00,0.00,-0.22,0.50,9.82,0.00,-0.00,0.00,-0.05,0.79,9.80,-0.00,0.00,0.00,-0.21,0.48,9.79,-0.00,-0.00,0.00,0.16,0.34,9.83,-0.00,-0.00,-0.00,1.95,0.27,9.67,0.0000,0.0000,0.00
24532290,-0.00,-0.00,0.00,-0.27,0.49,9.82,0.00,-0.00,0.00,-0.06,0.78,9.76,0.00,0.00,-0.00,-0.22,0.46,9.80,-0.00,0.00,-0.00,0.10,0.34,9.86,-0.00,0.00,-0.00,1.98,0.27,9.64,0.0000,0.0000,0.00
24542290,-0.00,-0.00,0.00,-0.24,0.51,9.84,-0.00,0.00,0.00,-0.06,0.73,9.81,-0.00,0.00,-0.00,-0.21,0.47,9.79,-0.00,0.00,0.00,0.14,0.35,9.85,-0.00,0.00,-0.00,2.03,0.26,9.67,0.0000,0.0000,0.00
24552290,-0.01,-0.00,0.00,-0.26,0.51,9.80,-0.01,0.00,-0.00,-0.05,0.76,9.78,-0.01,-0.00,-0.00,-0.21,0.51,9.79,-0.01,0.00,-0.00,0.15,0.36,9.87,-0.00,-0.00,0.00,2.00,0.28,9.60,0.0000,0.0000,0.00
24562290,-0.00,-0.00,-0.00,-0.26,0.49,9.76,-0.00,0.00,0.00,-0.05,0.78,9.82,-0.00,0.00,0.00,-0.19,0.45,9.80,-0.01,0.00,-0.00,0.18,0.35,9.83,-0.00,0.00,-0.00,2.01,0.26,9.64,0.0000,0.0000,0.00
24572290,0.00,-0.00,0.00,-0.23,0.48,9.75,-0.00,0.00,-0.00,-0.04,0.72,9.72,-0.00,-0.00,0.00,-0.19,0.48,9.74,-0.00,-0.00,0.00,0.15,0.33,9.80,-0.00,-0.00,0.00,1.97,0.30,9.64,0.0000,0.0000,0.00
24582290,0.00,-0.00,-0.00,-0.31,0.64,10.19,0.01,0.00,0.00,0.04,0.72,9.67,0.01,0.00,-0.00,0.00,0.38,9.36,0.01,-0.00,0.00,0.27,0.47,10.32,-0.00,0.00,0.00,1.71,0.33,8.88,0.0000,0.0000,0.00
24592290,0.00,0.00,-0.00,-0.21,0.19,9.81,0.01,0.00,-0.00,-0.08,0.80,9.84,0.01,-0.00,-0.00,-0.09,0.76,10.46,0.01,0.01,-0.00,0.24,0.67,10.04,0.01,0.00,-0.00,2.19,0.41,8.84,0.0000,0.0000,0.00
24602290,-0.00,-0.00,-0.00,-0.22,0.66,10.09,-0.00,0.00,0.00,-0.05,0.74,9.58,0.00,0.00,0.00,-0.21,0.36,9.40,0.00,0.01,-0.00,0.08,0.24,9.76,0.00,0.01,-0.00,2.02,0.24,9.85,0.0000,0.0000,0.00
24612290,-0.01,-0.00,-0.00,-0.26,0.50,9.72,-0.00,-0.00,0.00,-0.02,0.78,9.66,-0.00,0.00,-0.00,-0.24,0.52,9.77,-0.01,0.00,-0.00,0.11,0.45,9.84,-0.01,-0.00,-0.00,2.01,0.42,9.88,0.0000,0.0000,0.00
24622290,-0.01,0.00,0.00,-0.39,0.48,9.93,-0.01,-0.00,0.00,-0.10,0.70,9.74,-0.01,-0.00,-0.00,-0.29,0.40,9.72,-0.01,-0.00,0.00,0.11,0.25,9.27,-0.00,-0.00,0.00,2.08,0.28,10.25,0.0000,0.0000,0.00
24632290,0.00,0.00,0.00,-0.18,0.39,9.52,0.00,0.00,-0.00,-0.03,0.75,9.66,0.01,0.00,-0.00,-0.07,0.65,9.95,0.00,0.00,-0.00,0.28,0.46,9.70,0.00,0.01,-0.00,2.00,0.36,9.06,0.0000,0.0000,0.00
24642290,0.01,-0.00,-0.00,-0.32,0.43,9.71,0.00,-0.00,-0.00,-0.06,0.76,9.62,0.00,-0.00,0.00,-0.27,0.58,9.63,0.01,0.00,-0.00,0.07,0.40,9.75,0.01,0.00,-0.00,2.02,0.34,9.90,0.0000,0.0000,0.00
24652290,0.00,-0.00,-0.00,-0.22,0.45,9.80,0.00,-0.00,-0.00,-0.03,0.74,9.80,0.00,-0.00,-0.00,-0.10,0.51,9.79,0.00,-0.00,-0.00,0.18,0.38,9.82,-0.00,-0.01,-0.00,2.04,0.36,9.65,0.0000,0.0000,0.00
24662290,-0.00,-0.00,-0.00,-0.28,0.54,9.93,-0.01,0.00,-0.00,-0.05,0.80,9.83,-0.00,-0.00,-0.00,-0.20,0.48,9.74,-0.01,-0.00,0.00,0.09,0.35,9.81,-0.01,-0.00,0.00,1.99,0.26,9.48,0.0000,0.0000,0.00
24672290,-0.00,-0.00,-0.00,-0.24,0.48,9.79,-0.00,0.00,-0.00,-0.08,0.70,9.81,-0.00,0.00,0.00,-0.21,0.43,9.72,-0.00,0.01,0.00,0.14,0.32,9.84,-0.00,0.01,0.00,2.00,0.27,9.71,0.0000,0.0000,0.00
24682290,-0.00,-0.00,-0.00,-0.27,0.49,9.74,-0.00,0.00,-0.00,-0.06,0.77,9.75,-0.00,-0.00,-0.00,-0.19,0.44,9.80,-0.01,0.00,-0.00,0.19,0.34,9.86,-0.00,-0.00,-0.00,1.99,0.28,9.78,0.0000,0.0000,0.00
24692290,0.00,-0.00,0.00,-0.26,0.44,9.81,0.00,0.00,-0.00,-0.05,0.71,9.79,0.00,-0.00,0.00,-0.18,0.41,9.88,0.00,-0.00,-0.00,0.15,0.29,9.83,-0.00,-0.01,-0.00,1.94,0.27,9.50,0.0000,0.0000,0.00
24702290,0.01,-0.00,0.00,-0.26,0.51,9.87,0.00,-0.00,0.00,-0.06,0.77,9.86,0.01,0.00,0.00,-0.24,0.46,9.85,0.01,0.00,-0.00,0.13,0.34,9.84,0.01,0.00,-0.00,1.98,0.24,9.54,0.0000,0.0000,0.00
24712290,-0.00,-0.00,-0.00,-0.27,0.43,9.80,0.00,-0.00,-0.00,-0.01,0.74,9.76,0.00,0.00,0.00,-0.20,0.46,9.76,0.00,0.00,-0.00,0.15,0.34,9.91,0.00,0.00,-0.00,1.99,0.30,9.82,0.0000,0.0000,0.00
24722290,-0.00,-0.00,-0.00,-0.26,0.51,9.74,-0.00,-0.00,0.00,-0.01,0.76,9.68,-0.00,-0.00,0.00,-0.18,0.48,9.74,-0.00,-0.00,-0.00,0.13,0.35,9.82,-0.01,-0.00,-0.00,2.02,0.31,9.69,0.0000,0.0000,0.00
24732290,-0.00,0.00,-0.00,-0.23,0.47,9.85,-0.00,-0.00,0.00,-0.01,0.76,9.86,-0.00,0.00,-0.00,-0.19,0.50,9.83,-0.00,0.00,-0.00,0.11,0.32,9.85,-0.00,0.00,0.00,2.00,0.29,9.54,0.0000,0.0000,0.00
24742290,0.00,-0.00,0.00,-0.23,0.45,9.80,0.00,-0.00,0.00,-0.07,0.80,9.77,0.00,0.00,0.00,-0.15,0.47,9.81,0.00,0.00,0.00,0.17,0.40,9.87,0.00,0.00,0.00,1.97,0.34,9.57,0.0000,0.0000,0.00
24752290,0.00,0.00,-0.00,-0.26,0.47,9.67,0.00,-0.00,0.00,-0.05,0.76,9.67,0.00,-0.00,0.00,-0.20,0.49,9.72,0.00,-0.00,0.00,0.09,0.35,9.81,0.00,0.00,-0.00,1.98,0.26,9.73,0.0000,0.0000,0.00
24762290,0.00,0.00,-0.00,-0.27,0.53,9.82,0.00,-0.00,-0.00,-0.06,0.81,9.81,0.00,-0.00,0.00,-0.20,0.51,9.83,0.00,-0.00,-0.00,0.12,0.37,9.88,0.00,-0.01,0.00,1.98,0.33,9.63,0.0000,0.0000,0.00
24772290,0.00,-0.00,0.00,-0.29,0.54,9.91,0.00,-0.00,0.00,-0.07,0.78,9.87,-0.00,-0.00,0.00,-0.20,0.47,9.87,-0.00,0.00,-0.00,0.13,0.38,9.84,-0.00,0.00,-0.00,1.97,0.32,9.56,0.0000,0.0000,0.00
24782290,-0.00,-0.00,-0.00,-0.26,0.51,9.73,-0.00,0.00,0.00,-0.06,0.73,9.74,-0.00,0.00,-0.00,-0.17,0.48,9.77,-0.00,0.00,0.00,0.12,0.37,9.83,-0.00,0.00,-0.00,1.97,0.34,9.69,0.0000,0.0000,0.00
24792290,-0.00,0.00,-0.00,-0.27,0.49,9.76,-0.00,-0.00,-0.00,-0.07,0.74,9.74,-0.00,-0.00,-0.00,-0.17,0.50,9.75,-0.00,-0.00,0.00,0.15,0.33,9.87,-0.00,-0.00,0.00,1.99,0.31,9.74,0.0000,0.0000,0.00
24802290,-0.00,0.00,0.00,-0.28,0.46,9.86,-0.00,-0.00,-0.00,-0.06,0.76,9.78,-0.00,0.00,0.00,-0.17,0.45,9.81,-0.00,-0.00,0.00,0.14,0.30,9.78,-0.00,-0.00,0.00,1.96,0.26,9.51,0.0000,0.0000,0.00
24812290,0.00,-0.00,-0.00,-0.25,0.50,9.80,0.00,-0.00,0.00,-0.02,0.72,9.80,0.00,0.00,-0.00,-0.14,0.45,9.80,0.01,0.00,0.00,0.16,0.35,9.82,0.00,0.01,-0.00,1.96,0.27,9.52,0.0000,0.0000,0.00
24822290,0.00,-0.00,0.00,-0.26,0.49,9.72,0.00,0.00,-0.00,-0.05,0.77,9.73,0.00,0.00,0.00,-0.19,0.51,9.74,0.00,0.00,-0.00,0.17,0.35,9.87,0.00,0.00,-0.00,2.02,0.30,9.79,0.0000,0.0000,0.00
24832290,-0.00,-0.00,-0.00,-0.27,0.52,9.79,-0.00,0.00,0.00,-0.01,0.75,9.81,-0.00,-0.00,0.00,-0.20,0.44,9.78,-0.00,-0.00,0.00,0.14,0.35,9.87,-0.00,-0.01,-0.00,2.03,0.29,9.68,0.0000,0.0000,0.00
24842290,-0.00,-0.00,0.00,-0.22,0.47,9.83,-0.00,0.00,0.00,-0.03,0.77,9.80,-0.00,-0.00,-0.00,-0.16,0.47,9.82,-0.00,0.00,-0.00,0.14,0.36,9.83,-0.00,-0.00,-0.00,1.95,0.29,9.51,0.0000,0.0000,0.00
24852290,-0.00,-0.00,0.00,-0.25,0.43,9.81,0.00,-0.00,0.00,-0.04,0.73,9.77,0.00,0.00,0.00,-0.18,0.45,9.78,0.00,0.00,0.00,0.16,0.35,9.83,0.00,0.01,0.00,2.01,0.28,9.69,0.0000,0.0000,0.00
24862290,-0.00,-0.00,0.00,-0.28,0.48,9.73,0.00,-0.00,-0.00,-0.06,0.70,9.74,-0.00,-0.00,-0.00,-0.21,0.45,9.75,-0.00,0.00,-0.00,0.12,0.35,9.82,-0.00,-0.00,-0.00,1.96,0.29,9.70,0.0000,0.0000,0.00
24872290,0.00,0.00,-0.00,-0.27,0.47,9.81,0.00,-0.00,0.00,-0.06,0.74,9.76,0.00,0.00,0.00,-0.20,0.47,9.82,0.00,-0.00,0.00,0.16,0.35,9.80,0.00,-0.00,0.00,2.00,0.27,9.55,0.0000,0.0000,0.00
24882290,0.00,0.00,0.00,-0.26,0.45,9.85,0.00,0.00,0.00,-0.02,0.78,9.83,0.00,0.00,0.00,-0.20,0.49,9.82,0.00,0.00,0.00,0.11,0.33,9.85,0.00,0.00,0.00,1.95,0.29,9.59,0.0000,0.0000,0.00
24892290,-0.00,0.00,0.00,-0.26,0.50,9.75,0.00,-0.00,0.00,-0.04,0.72,9.72,-0.00,0.00,0.00,-0.22,0.47,9.77,0.00,0.00,-0.00,0.18,0.37,9.90,-0.00,0.00,0.00,1.95,0.32,9.70,0.0000,0.0000,0.00
24902290,-0.00,-0.00,-0.00,-0.29,0.46,9.75,-0.00,0.00,-0.00,-0.03,0.77,9.75,-0.00,-0.00,0.00,-0.18,0.45,9.79,-0.00,-0.00,0.00,0.12,0.35,9.85,-0.00,-0.01,-0.00,2.00,0.29,9.66,0.0000,0.0000,0.00
24912290,-0.00,0.00,-0.00,-0.25,0.47,9.83,-0.00,-0.00,0.00,0.00,0.76,9.81,-0.00,-0.00,-0.00,-0.20,0.46,9.80,-0.00,-0.00,0.00,0.14,0.33,9.83,-0.00,-0.00,0.00,1.95,0.31,9.54,0.0000,0.0000,0.00
24922290,0.00,0.00,-0.00,-0.27,0.48,9.81,0.00,-0.00,-0.00,-0.05,0.79,9.77,0.00,0.00,-0.00,-0.22,0.44,9.77,0.00,0.00,0.00,0.14,0.35,9.83,0.00,0.00,-0.00,1.99,0.29,9.61,0.0000,0.0000,0.00
24932290,0.00,0.00,-0.00,-0.27,0.52,9.73,0.00,0.00,0.00,-0.06,0.75,9.70,0.00,-0.00,0.00,-0.23,0.47,9.74,0.00,0.00,-0.00,0.08,0.38,9.80,0.00,0.00,-0.00,1.99,0.29,9.72,0.0000,0.0000,0.00
24942290,-0.00,0.00,0.00,-0.25,0.54,9.85,0.00,0.00,0.00,-0.06,0.78,9.82,0.00,-0.00,0.00,-0.22,0.47,9.82,0.00,-0.00,0.00,0.14,0.38,9.88,0.00,-0.01,-0.00,1.98,0.34,9.59,0.0000,0.0000,0.00
24952290,-0.00,-0.00,0.00,-0.25,0.54,9.85,0.00,-0.00,0.00,-0.05,0.80,9.83,0.00,-0.00,-0.00,-0.19,0.48,9.79,0.00,0.00,0.00,0.14,0.37,9.79,0.00,-0.00,0.00,1.97,0.33,9.56,0.0000,0.0000,0.00
24962290,-0.00,-0.00,-0.00,-0.29,0.50,9.77,0.00,-0.00,0.00,-0.06,0.80,9.77,-0.00,0.00,-0.00,-0.18,0.44,9.76,-0.00,0.00,0.00,0.16,0.35,9.86,-0.00,0.00,-0.00,1.96,0.32,9.68,0.0000,0.0000,0.00
24972290,-0.00,-0.00,0.00,-0.25,0.45,9.75,-0.00,0.00,0.00,-0.04,0.78,9.73,-0.00,-0.00,0.00,-0.22,0.51,9.75,-0.00,-0.00,0.00,0.15,0.37,9.87,-0.00,-0.00,-0.00,2.01,0.34,9.69,0.0000,0.0000,0.00
24982290,-0.00,-0.00,-0.00,-0.25,0.50,9.84,-0.00,0.00,-0.00,-0.06,0.76,9.83,0.00,-0.00,-0.00,-0.19,0.47,9.85,-0.00,-0.00,-0.00,0.13,0.35,9.86,-0.00,-0.00,-0.00,1.99,0.26,9.56,0.0000,0.0000,0.00
24992290,0.00,-0.00,0.00,-0.29,0.47,9.83,0.00,0.00,-0.00,-0.05,0.76,9.80,0.00,0.00,-0.00,-0.18,0.46,9.82,0.00,0.00,-0.00,0.16,0.34,9.82,0.00,0.00,-0.00,1.97,0.29,9.61,0.0000,0.0000,0.00
25002290,0.00,-0.00,-0.00,-0.25,0.53,9.75,-0.00,0.00,0.00,-0.04,0.75,9.74,0.00,0.00,0.00,-0.20,0.48,9.78,0.00,0.00,0.00,0.14,0.31,9.86,0.00,0.00,-0.00,1.99,0.30,9.72,0.0000,0.0000,0.00
25012290,-0.00,-0.00,0.00,-0.26,0.46,9.82,-0.00,-0.00,-0.00,-0.06,0.71,9.79,-0.00,-0.00,-0.00,-0.18,0.43,9.80,-0.00,-0.00,-0.00,0.17,0.28,9.85,-0.00,-0.00,-0.00,1.96,0.28,9.64,0.0000,0.0000,0.00
25022290,-0.00,0.00,-0.00,-0.25,0.50,9.82,-0.00,0.00,-0.00,-0.03,0.73,9.83,-0.00,0.00,-0.00,-0.18,0.47,9.77,-0.00,0.00,-0.00,0.12,0.32,9.86,-0.00,0.00,0.00,2.00,0.28,9.53,0.0000,0.0000,0.00
25032290,-0.00,-0.00,-0.00,-0.25,0.43,9.74,-0.00,0.00,-0.00,-0.06,0.72,9.76,-0.00,0.00,0.00,-0.18,0.41,9.77,0.00,0.00,0.00,0.18,0.33,9.85,-0.00,0.00,-0.00,1.99,0.25,9.68,0.0000,0.0000,0.00
25042290,0.00,0.00,-0.00,-0.28,0.43,9.74,-0.00,-0.00,-0.00,-0.04,0.69,9.73,-0.00,0.00,0.00,-0.17,0.41,9.77,0.00,-0.00,0.00,0.10,0.29,9.83,-0.00,-0.00,0.00,2.02,0.29,9.67,0.0000,0.0000,0.00
25052290,0.00,0.00,0.00,-0.25,0.43,9.82,0.01,-0.00,0.00,-0.06,0.70,9.75,0.00,-0.00,0.00,-0.18,0.42,9.79,0.00,-0.00,0.00,0.14,0.30,9.82,0.00,-0.00,-0.00,1.98,0.23,9.53,0.0000,0.0000,0.00
25062290,0.00,-0.00,0.00,-0.22,0.50,9.85,0.00,-0.00,-0.00,-0.03,0.73,9.82,0.00,0.00,0.00,-0.19,0.46,9.82,0.00,0.00,0.00,0.14,0.35,9.85,0.00,0.00,-0.00,1.97,0.32,9.62,0.0000,0.0000,0.00
25072290,0.00,-0.00,-0.00,-0.28,0.50,9.72,0.00,0.00,0.00,-0.05,0.75,9.73,0.00,0.00,-0.00,-0.20,0.48,9.78,0.00,0.00,0.00,0.16,0.35,9.84,0.00,0.00,-0.00,2.00,0.34,9.73,0.0000,0.0000,0.00
25082290,-0.00,-0.00,-0.00,-0.30,0.51,9.78,-0.00,0.00,0.00,-0.02,0.78,9.77,-0.00,-0.00,0.00,-0.20,0.48,9.80,-0.00,-0.00,0.00,0.13,0.38,9.87,-0.00,-0.00,0.00,1.99,0.32,9.65,0.0000,0.0000,0.00
25092290,-0.00,-0.00,0.00,-0.26,0.50,9.85,-0.00,0.00,-0.00,-0.04,0.73,9.79,-0.00,-0.00,0.00,-0.19,0.47,9.82,-0.01,-0.00,-0.00,0.13,0.31,9.81,-0.00,-0.00,-0.00,1.97,0.28,9.55,0.0000,0.0000,0.00
25102290,-0.00,0.00,0.00,-0.26,0.51,9.75,0.00,0.00,0.00,-0.06,0.80,9.75,0.00,0.00,0.00,-0.19,0.46,9.72,-0.00,0.00,-0.00,0.10,0.37,9.80,-0.00,0.00,0.00,1.97,0.33,9.60,0.0000,0.0000,0.00
25112290,0.00,0.00,-0.00,-0.29,0.52,9.71,0.00,-0.00,0.00,-0.05,0.76,9.71,0.00,-0.00,0.00,-0.19,0.53,9.78,-0.00,-0.00,0.00,0.15,0.35,9.82,0.00,-0.00,0.00,2.01,0.28,9.70,0.0000,0.0000,0.00
25122290,0.00,0.00,0.00,-0.29,0.45,9.81,0.00,-0.00,0.00,-0.06,0.78,9.80,0.00,-0.00,0.00,-0.22,0.46,9.81,0.00,-0.00,0.00,0.12,0.37,9.87,0.00,-0.00,0.00,2.01,0.29,9.61,0.0000,0.0000,0.00
25132290,0.00,0.00,0.00,-0.28,0.49,9.87,0.00,0.00,0.00,-0.02,0.74,9.81,0.00,0.00,0.00,-0.19,0.46,9.82,-0.00,0.00,-0.00,0.12,0.31,9.84,0.00,-0.00,-0.00,1.94,0.26,9.60,0.0000,0.0000,0.00
25142290,-0.00,-0.00,0.00,-0.29,0.50,9.75,-0.00,-0.00,0.00,-0.08,0.73,9.76,-0.00,0.00,-0.00,-0.20,0.48,9.79,-0.00,0.00,0.00,0.14,0.36,9.88,-0.00,0.00,0.00,2.00,0.32,9.70,0.0000,0.0000,0.00
25152290,-0.00,-0.00,0.00,-0.27,0.52,9.73,-0.00,-0.00,0.00,-0.06,0.80,9.77,0.00,-0.00,-0.00,-0.21,0.53,9.79,-0.00,-0.00,0.00,0.09,0.38,9.80,-0.00,-0.00,0.00,1.97,0.34,9.68,0.0000,0.0000,0.00
25162290,0.00,-0.00,0.00,-0.24,0.51,9.82,0.00,0.00,-0.00,-0.03,0.77,9.79,0.00,-0.00,0.00,-0.20,0.50,9.79,0.00,-0.00,-0.00,0.15,0.40,9.83,0.00,-0.00,-0.00,1.98,0.35,9.54,0.0000,0.0000,0.00
25172290,0.00,0.00,-0.00,-0.27,0.51,9.78,0.00,0.00,0.00,-0.04,0.80,9.82,0.00,0.00,0.00,-0.22,0.50,9.80,0.00,0.00,0.00,0.12,0.35,9.87,0.00,0.00,-0.00,2.00,0.32,9.64,0.0000,0.0000,0.00
25182290,0.00,0.00,0.00,-0.26,0.52,9.78,0.00,0.00,0.00,-0.02,0.83,9.76,0.00,-0.00,-0.00,-0.18,0.49,9.75,0.00,0.00,0.00,0.16,0.36,9.88,0.00,-0.00,-0.00,2.01,0.27,9.71,0.0000,0.0000,0.00
25192290,-0.00,0.00,-0.00,-0.30,0.53,9.79,0.00,-0.00,-0.00,-0.04,0.78,9.79,-0.00,-0.00,-0.00,-0.17,0.51,9.81,-0.00,-0.00,-0.00,0.14,0.35,9.80,-0.00,-0.00,0.00,1.98,0.29,9.66,0.0000,0.0000,0.00
25202290,-0.00,-0.00,0.00,-0.27,0.52,9.85,-0.00,-0.00,0.00,-0.05,0.77,9.82,-0.00,-0.00,0.00,-0.20,0.45,9.83,-0.00,0.00,0.00,0.17,0.37,9.85,-0.00,-0.00,0.00,1.96,0.29,9.58,0.0000,0.0000,0.00
25212290,-0.00,-0.00,-0.00,-0.26,0.49,9.75,0.00,0.00,0.00,-0.06,0.76,9.76,-0.00,0.00,-0.00,-0.16,0.46,9.74,-0.00,0.00,-0.00,0.14,0.34,9.81,-0.00,0.00,0.00,2.01,0.29,9.69,0.0000,0.0000,0.00
25222290,-0.00,-0.00,-0.00,-0.24,0.49,9.80,0.00,0.00,-0.00,-0.06,0.73,9.74,0.00,-0.00,-0.00,-0.20,0.46,9.75,0.00,-0.00,-0.00,0.16,0.32,9.85,-0.00,0.00,-0.00,1.95,0.26,9.69,0.0000,0.0000,0.00
25232290,0.00,-0.00,0.00,-0.28,0.47,9.84,-0.00,-0.00,0.00,-0.05,0.75,9.82,-0.00,-0.00,0.00,-0.21,0.48,9.82,0.00,-0.00,0.00,0.12,0.33,9.84,0.00,-0.00,-0.00,1.97,0.27,9.60,0.0000,0.0000,0.00
25242290,0.00,0.00,-0.00,-0.26,0.47,9.84,-0.00,-0.00,-0.00,-0.04,0.77,9.79,0.00,0.00,0.00,-0.20,0.45,9.81,0.00,0.00,-0.00,0.14,0.32,9.84,0.00,0.00,-0.00,2.01,0.29,9.61,0.0000,0.0000,0.00
25252290,-0.00,0.00,-0.00,-0.27,0.51,9.77,-0.00,0.00,-0.00,-0.03,0.76,9.75,-0.00,-0.00,-0.00,-0.18,0.40,9.76,-0.00,0.00,0.00,0.14,0.35,9.82,-0.00,0.00,-0.00,2.02,0.24,9.68,0.0000,0.0000,0.00
25262290,-0.00,-0.00,-0.00,-0.25,0.47,9.75,0.00,-0.00,0.00,-0.01,0.77,9.74,-0.00,-0.00,0.00,-0.16,0.46,9.78,-0.00,-0.00,0.00,0.17,0.33,9.83,-0.00,-0.00,-0.00,2.01,0.30,9.65,0.0000,0.0000,0.00
25272290,0.00,-0.00,0.00,-0.27,0.48,9.85,-0.00,0.00,-0.00,-0.02,0.74,9.83,-0.00,-0.00,-0.00,-0.19,0.51,9.81,0.00,-0.00,0.00,0.14,0.38,9.83,0.00,-0.00,0.00,1.99,0.31,9.55,0.0000,0.0000,0.00
25282290,0.00,-0.00,0.00,-0.27,0.52,9.78,0.00,0.00,-0.00,-0.04,0.79,9.74,0.00,0.00,-0.00,-0.20,0.48,9.81,0.00,0.00,0.00,0.14,0.35,9.84,0.00,0.00,-0.00,1.99,0.29,9.63,0.0000,0.0000,0.00
25292290,0.00,0.00,-0.00,-0.23,0.52,9.77,-0.00,0.00,-0.00,-0.02,0.75,9.75,0.00,-0.00,0.00,-0.14,0.49,9.76,0.00,-0.00,0.00,0.13,0.34,9.82,0.00,-0.00,-0.00,2.02,0.28,9.68,0.0000,0.0000,0.00
25302290,-0.00,-0.00,-0.00,-0.29,0.49,9.83,-0.00,-0.00,0.00,-0.05,0.76,9.79,-0.00,-0.00,-0.00,-0.18,0.48,9.81,-0.00,-0.00,-0.00,0.13,0.37,9.88,-0.00,-0.00,0.00,1.97,0.30,9.62,0.0000,0.0000,0.00
25312290,-0.00,-0.00,-0.00,-0.23,0.49,9.83,-0.00,-0.00,-0.00,-0.02,0.78,9.80,-0.00,0.00,-0.00,-0.17,0.53,9.75,-0.00,0.00,0.00,0.17,0.35,9.80,0.00,0.00,-0.00,1.98,0.32,9.55,0.0000,0.0000,0.00
25322290,-0.00,-0.00,0.00,-0.27,0.47,9.79,0.00,-0.00,0.00,-0.05,0.76,9.75,0.00,0.00,-0.00,-0.17,0.48,9.77,0.00,0.00,0.00,0.14,0.38,9.80,-0.00,0.00,-0.00,2.00,0.28,9.67,0.0000,0.0000,0.00
25332290,0.00,0.00,-0.00,-0.24,0.52,9.75,-0.00,0.00,-0.00,-0.06,0.77,9.77,0.00,-0.00,0.00,-0.20,0.46,9.78,-0.00,-0.00,0.00,0.13,0.35,9.83,-0.00,-0.00,-0.00,1.98,0.30,9.68,0.0000,0.0000,0.00
25342290,0.00,0.00,-0.00,-0.31,0.49,9.84,-0.00,-0.00,-0.00,-0.04,0.78,9.80,-0.00,-0.00,-0.00,-0.20,0.46,9.85,-0.00,-0.00,0.00,0.09,0.35,9.84,0.00,-0.00,-0.00,1.99,0.33,9.57,0.0000,0.0000,0.00
25352290,-0.00,0.00,-0.00,-0.25,0.53,9.83,-0.00,-0.00,0.00,-0.04,0.72,9.79,-0.00,0.00,0.00,-0.17,0.48,9.78,0.00,0.00,-0.00,0.14,0.35,9.84,0.00,0.00,-0.00,1.98,0.29,9.63,0.0000,0.0000,0.00
25362290,-0.00,0.00,-0.00,-0.27,0.43,9.76,0.00,-0.00,0.00,-0.04,0.78,9.74,-0.00,-0.00,0.00,-0.23,0.44,9.78,-0.00,0.00,-0.00,0.14,0.31,9.83,-0.00,-0.00,-0.00,1.98,0.29,9.70,0.0000,0.0000,0.00
25372290,-0.00,-0.00,-0.00,-0.29,0.47,9.77,0.00,-0.00,0.00,-0.04,0.74,9.81,-0.00,-0.00,0.00,-0.21,0.47,9.81,-0.00,-0.00,-0.00,0.13,0.33,9.81,-0.00,-0.00,0.00,1.98,0.27,9.64,0.0000,0.0000,0.00
25382290,0.00,-0.00,-0.00,-0.26,0.46,9.85,0.00,0.00,0.00,-0.01,0.77,9.83,-0.00,0.00,0.00,-0.22,0.48,9.81,0.00,0.00,-0.00,0.11,0.36,9.84,0.00,0.00,-0.00,1.96,0.28,9.57,0.0000,0.0000,0.00
25392290,-0.00,-0.00,-0.00,-0.28,0.48,9.77,-0.00,0.00,0.00,0.00,0.75,9.74,0.00,0.00,-0.00,-0.23,0.49,9.78,0.00,0.00,-0.00,0.17,0.33,9.88,0.00,0.00,-0.00,1.99,0.30,9.70,0.0000,0.0000,0.00
25402290,-0.00,0.00,-0.00,-0.27,0.52,9.78,0.00,-0.00,-0.00,-0.05,0.76,9.80,-0.00,0.00,0.00,-0.17,0.50,9.76,0.00,-0.00,0.00,0.14,0.33,9.86,-0.00,-0.00,-0.00,2.01,0.32,9.70,0.0000,0.0000,0.00
25412290,-0.00,-0.00,0.00,-0.26,0.49,9.79,-0.00,-0.00,-0.00,-0.04,0.77,9.82,0.00,0.00,-0.00,-0.21,0.46,9.82,-0.00,-0.00,0.00,0.13,0.31,9.84,-0.00,-0.00,-0.00,1.97,0.35,9.60,0.0000,0.0000,0.00
25422290,-0.00,-0.00,-0.00,-0.23,0.47,9.84,-0.00,0.00,-0.00,-0.05,0.77,9.78,0.00,0.00,0.00,-0.21,0.51,9.77,-0.00,0.00,-0.00,0.15,0.35,9.82,0.00,0.00,-0.00,1.96,0.30,9.62,0.0000,0.0000,0.00
25432290,0.00,-0.00,0.00,-0.27,0.50,9.75,0.00,-0.00,0.00,-0.06,0.76,9.72,-0.00,0.00,0.00,-0.19,0.47,9.76,-0.00,0.00,0.00,0.13,0.33,9.84,-0.00,0.00,0.00,2.01,0.31,9.69,0.0000,0.0000,0.00
25442290,-0.00,0.00,-0.00,-0.26,0.47,9.74,0.00,0.00,-0.00,-0.07,0.75,9.77,0.00,0.00,-0.00,-0.17,0.46,9.75,-0.00,-0.00,-0.00,0.14,0.34,9.85,0.00,-0.00,0.00,2.00,0.30,9.63,0.0000,0.0000,0.00
25452290,0.00,0.00,-0.00,-0.26,0.48,9.82,0.00,0.00,0.00,-0.06,0.76,9.79,-0.00,0.00,0.00,-0.19,0.46,9.82,0.00,-0.00,-0.00,0.12,0.34,9.81,0.00,0.00,-0.00,1.97,0.29,9.59,0.0000,0.0000,0.00
25462290,-0.00,0.00,0.00,-0.27,0.51,9.75,-0.00,0.00,-0.00,-0.04,0.76,9.77,0.00,0.00,-0.00,-0.19,0.47,9.77,0.00,0.00,-0.00,0.15,0.32,9.84,0.00,0.00,0.00,2.02,0.29,9.64,0.0000,0.0000,0.00
25472290,-0.00,-0.00,-0.00,-0.27,0.52,9.78,0.00,0.00,0.00,-0.02,0.74,9.78,-0.00,-0.00,-0.00,-0.20,0.46,9.76,0.00,-0.00,0.00,0.11,0.38,9.83,-0.00,-0.00,-0.00,1.97,0.32,9.65,0.0000,0.0000,0.00
25482290,-0.00,0.00,-0.00,-0.29,0.51,9.83,-0.00,0.00,-0.00,-0.06,0.78,9.81,-0.00,-0.00,0.00,-0.19,0.48,9.81,-0.00,0.00,0.00,0.15,0.37,9.81,-0.00,-0.00,0.00,1.97,0.28,9.60,0.0000,0.0000,0.00
25492290,0.00,0.00,0.00,-0.28,0.51,9.81,-0.00,0.00,0.00,-0.03,0.78,9.76,0.00,0.00,-0.00,-0.16,0.46,9.80,0.00,0.00,0.00,0.13,0.35,9.80,0.00,0.00,-0.00,1.95,0.31,9.61,0.0000,0.0000,0.00
25502290,0.00,-0.00,-0.00,-0.28,0.51,9.84,0.00,0.00,0.00,-0.03,0.76,9.73,0.00,-0.00,-0.00,-0.23,0.49,9.76,0.00,0.00,-0.00,0.13,0.34,9.83,0.00,0.00,0.00,2.02,0.32,9.65,0.0000,0.0000,0.00
25512290,-0.00,0.00,-0.00,-0.27,0.50,9.77,0.00,-0.00,-0.00,-0.03,0.75,9.77,-0.00,-0.00,-0.00,-0.22,0.47,9.80,0.00,-0.00,0.00,0.14,0.37,9.86,-0.00,-0.00,-0.00,1.97,0.32,9.67,0.0000,0.0000,0.00
25522290,-0.00,-0.00,-0.00,-0.31,0.49,9.83,0.00,-0.00,0.00,-0.05,0.73,9.83,-0.00,-0.00,-0.00,-0.16,0.45,9.81,-0.00,-0.00,0.00,0.10,0.31,9.84,-0.00,-0.00,-0.00,1.98,0.25,9.58,0.0000,0.0000,0.00
25532290,0.00,0.00,-0.00,-0.25,0.48,9.80,0.00,-0.00,-0.00,-0.05,0.71,9.77,0.00,-0.00,-0.00,-0.17,0.47,9.76,0.00,0.00,0.00,0.12,0.30,9.87,0.00,0.00,-0.00,1.98,0.30,9.64,0.0000,0.0000,0.00
25542290,0.00,0.00,-0.00,-0.27,0.50,9.80,0.00,-0.00,0.00,-0.03,0.74,9.72,-0.00,-0.00,0.00,-0.18,0.48,9.77,0.00,-0.00,-0.00,0.13,0.35,9.85,-0.00,-0.00,-0.00,1.94,0.31,9.68,0.0000,0.0000,0.00
25552290,0.00,0.00,0.00,-0.27,0.49,9.82,0.00,-0.00,-0.00,-0.01,0.73,9.76,0.00,-0.00,-0.00,-0.20,0.43,9.82,0.00,-0.00,0.00,0.11,0.34,9.85,0.00,-0.00,0.00,1.99,0.33,9.63,0.0000,0.0000,0.00
25562290,-0.00,-0.00,0.00,-0.27,0.49,9.84,0.00,-0.00,-0.00,-0.04,0.76,9.82,0.00,0.00,0.00,-0.19,0.51,9.80,-0.00,0.00,-0.00,0.10,0.35,9.83,0.00,0.00,-0.00,1.98,0.26,9.59,0.0000,0.0000,0.00
25572290,0.00,0.00,0.00,-0.28,0.55,9.77,0.00,0.00,-0.00,-0.06,0.80,9.77,0.00,0.00,0.00,-0.20,0.44,9.81,0.00,0.00,-0.00,0.13,0.33,9.82,-0.00,0.00,-0.00,2.00,0.32,9.64,0.0000,0.0000,0.00
25582290,-0.00,-0.00,0.00,-0.27,0.50,9.79,-0.00,0.00,-0.00,-0.05,0.76,9.78,0.00,0.00,-0.00,-0.19,0.47,9.78,-0.00,-0.00,0.00,0.14,0.37,9.83,0.00,-0.00,0.00,1.98,0.31,9.66,0.0000,0.0000,0.00
25592290,-0.00,0.00,-0.00,-0.29,0.52,9.80,0.00,-0.00,0.00,-0.05,0.78,9.83,0.00,0.00,0.00,-0.18,0.51,9.77,-0.00,0.00,-0.00,0.15,0.37,9.85,0.00,-0.00,-0.00,1.97,0.32,9.61,0.0000,0.0000,0.00
25602290,0.00,-0.00,0.00,-0.26,0.50,9.83,-0.00,-0.00,-0.00,0.01,0.76,9.81,0.00,0.00,-0.00,-0.16,0.47,9.78,0.00,0.00,0.00,0.15,0.37,9.87,0.00,0.00,0.00,2.02,0.31,9.63,0.0000,0.0000,0.00
25612290,-0.00,-0.00,-0.00,-0.27,0.53,9.77,-0.00,0.00,-0.00,-0.06,0.76,9.78,0.00,-0.00,-0.00,-0.17,0.50,9.76,0.00,0.00,0.00,0.15,0.35,9.83,0.00,-0.00,0.00,1.99,0.33,9.67,0.0000,0.0000,0.00
25622290,0.00,-0.00,0.00,-0.25,0.50,9.76,-0.00,0.00,-0.00,-0.04,0.77,9.83,-0.00,-0.00,-0.00,-0.16,0.49,9.76,-0.00,-0.00,0.00,0.15,0.34,9.83,-0.00,-0.00,0.00,1.98,0.26,9.61,0.0000,0.0000,0.00
25632290,-0.00,0.00,0.00,-0.31,0.49,9.83,0.00,-0.00,-0.00,-0.03,0.80,9.83,-0.00,-0.00,0.00,-0.19,0.48,9.81,-0.00,0.00,0.00,0.13,0.35,9.83,-0.00,0.00,0.00,2.00,0.29,9.59,0.0000,0.0000,0.00
25642290,0.00,-0.00,-0.00,-0.25,0.47,9.79,0.00,-0.00,-0.00,-0.05,0.77,9.77,0.00,-0.00,-0.00,-0.20,0.46,9.77,0.00,0.00,0.00,0.15,0.32,9.83,-0.00,0.00,-0.00,1.99,0.29,9.64,0.0000,0.0000,0.00
25652290,-0.00,0.00,-0.00,-0.21,0.67,9.94,0.00,-0.01,-0.00,0.07,1.02,9.18,-0.01,-0.02,-0.00,-0.03,0.67,7.60,-0.02,-0.02,0.00,0.06,0.53,8.52,-0.03,0.02,0.01,2.06,0.61,10.91,0.0000,0.0000,0.00
25662290,0.00,-0.00,0.00,-0.12,0.24,9.27,0.00,-0.00,0.00,0.04,0.58,9.34,-0.00,0.00,0.00,-0.16,0.47,10.12,0.00,-0.00,-0.00,0.27,0.54,10.39,0.01,-0.02,-0.00,1.98,0.77,8.56,0.0000,0.0000,0.00
25672290,-0.00,0.00,-0.00,-0.51,0.41,10.27,0.00,-0.00,-0.00,-0.26,0.68,9.86,0.00,0.00,-0.00,-0.40,0.43,9.17,0.00,0.01,-0.00,-0.18,0.40,9.69,-0.00,0.01,-0.00,1.81,0.36,9.91,0.0000,0.0000,0.00
25682290,-0.00,-0.00,-0.00,-0.01,0.43,9.12,-0.00,0.00,0.00,0.15,0.68,9.10,0.00,0.00,-0.00,-0.02,0.45,9.27,-0.00,0.00,-0.00,0.30,0.34,9.47,-0.01,0.00,-0.00,2.09,0.29,9.47,0.0000,0.0000,0.00
25692290,-0.01,0.00,-0.00,-0.36,0.57,10.16,-0.00,-0.00,0.00,-0.14,0.83,9.83,-0.01,-0.01,-0.00,-0.30,0.57,9.52,-0.01,-0.02,0.00,-0.03,0.47,9.79,-0.00,-0.02,0.00,1.89,0.49,10.01,0.0000,0.0000,0.00
25702290,0.01,0.00,-0.00,-0.19,0.43,9.72,0.01,0.00,-0.00,0.01,0.72,9.65,0.01,-0.00,-0.00,-0.08,0.44,9.72,0.01,-0.00,-0.00,0.20,0.26,9.67,-0.00,0.00,-0.00,1.98,0.19,8.96,0.0000,0.0000,0.00
25712290,0.01,-0.00,-0.00,-0.28,0.50,9.89,0.01,0.00,0.00,-0.02,0.72,9.83,0.01,0.00,0.00,-0.19,0.42,9.79,0.01,0.01,-0.00,0.12,0.29,9.83,0.01,0.02,-0.00,1.97,0.25,9.82,0.0000,0.0000,0.00
25722290,-0.01,0.00,-0.00,-0.29,0.58,9.70,-0.01,-0.00,0.00,-0.08,0.86,9.77,-0.01,-0.01,-0.00,-0.23,0.59,9.96,-0.01,-0.01,-0.00,0.07,0.49,10.14,-0.01,-0.01,-0.00,2.05,0.47,10.14,0.0000,0.0000,0.00
25732290,-0.02,-0.00,0.00,-0.24,0.51,10.01,-0.03,-0.00,0.00,0.02,0.81,10.11,-0.03,0.00,-0.00,-0.11,0.54,10.01,-0.02,0.00,-0.00,0.22,0.36,9.81,-0.02,-0.00,0.00,1.98,0.42,9.02,0.0000,0.0000,0.00
25742290,-0.02,-0.00,-0.00,-0.29,0.50,9.92,-0.02,-0.00,0.00,-0.02,0.78,9.92,-0.03,0.01,-0.00,-0.20,0.50,9.83,-0.03,0.01,0.00,0.18,0.36,9.71,-0.03,0.02,0.00,1.94,0.30,9.31,0.0000,0.0000,0.00
25752290,-0.01,0.00,-0.00,-0.23,0.48,9.47,-0.01,0.00,0.00,-0.03,0.72,9.57,-0.01,0.00,-0.00,-0.19,0.44,9.72,-0.01,0.01,0.00,0.15,0.32,9.88,-0.01,0.01,0.00,2.01,0.21,10.01,0.0000,0.0000,0.00
25762290,0.01,0.00,0.00,-0.29,0.45,9.58,0.01,-0.00,-0.00,-0.06,0.72,9.54,0.00,-0.01,0.00,-0.22,0.43,9.62,-0.00,-0.01,-0.00,0.12,0.32,9.74,-0.00,-0.02,0.00,1.94,0.24,9.72,0.0000,0.0000,0.00
25772290,0.02,0.00,-0.00,-0.20,0.49,9.90,0.02,-0.00,0.00,0.01,0.77,9.94,0.02,-0.00,0.00,-0.12,0.50,10.02,0.03,-0.00,-0.00,0.20,0.34,9.81,0.02,-0.00,-0.01,1.97,0.23,9.17,0.0000,0.0000,0.00
25782290,0.04,-0.00,-0.00,-0.24,0.46,9.76,0.04,0.00,-0.00,0.00,0.72,9.82,0.04,0.00,-0.00,-0.19,0.40,9.84,0.05,0.01,-0.00,0.16,0.29,9.90,0.05,0.02,-0.01,1.98,0.22,9.65,0.0000,0.0000,0.00
25792290,0.01,-0.00,-0.00,-0.30,0.54,9.75,0.01,-0.00,-0.00,-0.09,0.80,9.69,0.01,-0.00,-0.00,-0.22,0.56,9.68,0.01,-0.00,0.00,0.04,0.45,9.87,0.01,0.00,-0.00,1.99,0.40,10.14,0.0000,0.0000,0.00
25802290,0.01,0.00,-0.00,-0.19,0.51,9.86,0.01,-0.00,0.00,0.04,0.80,9.84,0.01,-0.00,0.00,-0.13,0.47,9.88,0.01,-0.01,-0.00,0.24,0.35,9.86,0.00,-0.02,0.00,2.05,0.39,9.43,0.0000,0.0000,0.00
25812290,0.00,-0.00,0.00,-0.27,0.48,10.11,0.00,0.00,-0.00,-0.03,0.75,10.10,0.00,0.00,-0.00,-0.25,0.51,9.95,0.01,0.01,-0.00,0.14,0.40,9.75,0.01,0.01,-0.00,1.91,0.34,9.32,0.0000,0.0000,0.00
25822290,0.00,-0.00,-0.00,-0.25,0.45,9.60,0.00,0.00,-0.00,0.01,0.73,9.48,0.00,0.01,0.00,-0.18,0.44,9.59,0.00,0.01,-0.00,0.14,0.29,9.84,0.00,0.02,-0.00,2.00,0.30,9.88,0.0000,0.0000,0.00
25832290,-0.00,0.00,-0.00,-0.32,0.50,9.73,-0.00,-0.00,-0.00,-0.06,0.80,9.69,0.00,-0.00,0.00,-0.21,0.52,9.70,-0.00,-0.00,0.00,0.07,0.38,9.76,-0.00,0.00,-0.00,1.91,0.32,9.46,0.0000,0.0000,0.00
25842290,0.01,-0.00,-0.00,-0.28,0.49,10.12,0.01,0.00,-0.00,-0.03,0.75,10.09,0.01,0.01,-0.00,-0.21,0.43,10.02,0.02,0.02,0.00,0.13,0.31,9.87,0.02,0.04,-0.00,1.97,0.21,9.16,0.0000,0.0000,0.00
25852290,0.01,-0.00,-0.00,-0.26,0.52,9.64,0.01,0.00,0.00,-0.03,0.77,9.68,0.01,0.01,0.00,-0.20,0.50,9.74,0.01,0.03,-0.00,0.10,0.44,10.03,0.01,0.04,-0.00,2.07,0.36,10.42,0.0000,0.0000,0.00
25862290,-0.01,0.00,-0.00,-0.30,0.48,9.21,-0.01,-0.00,0.00,-0.09,0.75,9.24,-0.02,-0.01,-0.00,-0.23,0.47,9.44,-0.02,-0.03,-0.00,0.08,0.37,9.91,-0.02,-0.05,0.01,1.99,0.35,10.32,0.0000,0.0000,0.00
25872290,-0.01,0.00,-0.00,-0.27,0.42,10.31,-0.01,-0.00,0.00,0.02,0.78,10.31,-0.01,-0.01,-0.00,-0.15,0.39,10.15,-0.01,-0.02,0.00,0.21,0.23,9.70,-0.01,-0.03,-0.00,1.94,0.15,8.67,0.0000,0.0000,0.00
25882290,0.01,-0.00,-0.00,-0.23,0.54,10.00,0.01,0.00,-0.00,-0.06,0.80,10.05,0.01,0.01,0.00,-0.22,0.54,9.98,0.01,0.03,-0.00,0.16,0.39,9.80,0.01,0.05,-0.00,1.89,0.37,8.79,0.0000,0.0000,0.00
25892290,0.02,-0.00,0.00,-0.25,0.45,9.24,0.03,0.00,0.00,-0.06,0.66,9.06,0.03,0.01,-0.00,-0.25,0.42,9.21,0.03,0.02,-0.00,0.08,0.29,9.90,0.03,0.03,-0.01,2.07,0.23,11.15,0.0000,0.0000,0.00
25902290,0.01,0.01,0.00,-0.24,0.52,9.34,0.01,-0.01,-0.00,0.03,0.80,9.27,0.00,-0.02,-0.00,-0.18,0.53,9.36,-0.00,-0.05,0.00,0.14,0.40,9.76,-0.00,-0.07,0.00,2.01,0.41,10.11,0.0000,0.0000,0.00
25912290,0.03,0.00,0.00,-0.28,0.45,10.44,0.03,-0.00,-0.00,-0.03,0.71,10.47,0.03,-0.01,0.00,-0.15,0.41,10.25,0.02,-0.03,-0.00,0.16,0.25,9.81,0.02,-0.05,-0.01,1.92,0.23,8.68,0.0000,0.0000,0.00
25922290,-0.01,0.01,0.00,-0.17,0.70,10.13,-0.01,-0.00,0.00,0.04,1.03,9.26,-0.01,-0.02,-0.00,-0.07,1.00,8.58,-0.01,-0.02,-0.00,0.13,1.12,8.60,-0.02,0.02,0.00,1.73,1.36,9.43,0.0000,0.0000,0.00
25932290,0.03,0.00,-0.00,-0.24,0.42,9.93,0.02,0.00,0.00,-0.02,0.93,9.96,0.01,-0.00,0.00,-0.17,0.85,10.06,-0.00,-0.01,0.00,0.21,0.97,9.65,-0.01,-0.01,0.00,1.89,1.23,9.02,0.0000,0.0000,0.00
25942290,0.01,0.01,-0.00,-0.32,0.40,9.96,0.01,0.01,-0.00,-0.09,0.69,9.97,0.01,0.00,-0.00,-0.25,0.41,10.05,0.02,0.02,-0.00,0.10,0.26,9.91,0.01,0.03,-0.00,1.89,0.36,9.15,0.0000,0.0000,0.00
25952290,0.01,0.00,0.00,-0.27,0.27,9.40,0.01,0.00,0.00,-0.08,0.59,9.36,0.01,0.01,-0.00,-0.18,0.37,9.31,0.02,0.02,0.00,0.11,0.33,9.48,0.01,0.04,-0.00,1.93,0.20,9.82,0.0000,0.0000,0.00
25962290,0.05,0.01,0.00,-0.30,0.57,9.71,0.05,0.00,-0.00,-0.04,0.75,9.70,0.05,-0.00,0.00,-0.24,0.43,9.80,0.04,-0.01,-0.00,0.08,0.21,10.07,0.04,-0.02,-0.01,2.07,0.08,10.24,0.0000,0.0000,0.00
25972290,0.01,0.01,-0.00,-0.29,0.92,9.82,0.02,0.00,0.00,-0.12,1.25,10.00,0.02,-0.01,0.00,-0.25,0.84,10.05,0.02,-0.01,-0.00,0.14,0.50,10.15,0.03,-0.02,-0.01,1.96,0.30,9.43,0.0000,0.0000,0.00
25982290,0.04,-0.00,0.00,-0.13,0.13,10.08,0.03,0.00,-0.00,0.05,0.36,10.14,0.03,0.00,0.00,-0.08,0.02,9.91,0.02,0.00,0.00,0.18,-0.10,9.54,0.02,-0.01,-0.00,2.07,-0.26,9.63,0.0000,0.0000,0.00
25992290,0.03,0.00,-0.00,-0.30,0.64,9.58,0.03,-0.00,-0.00,-0.12,0.92,9.67,0.03,-0.01,-0.00,-0.23,0.65,9.85,0.03,-0.00,0.00,0.12,0.53,9.71,0.03,0.01,-0.01,1.88,0.54,9.45,0.0000,0.0000,0.00
26002290,0.03,0.00,-0.00,-0.33,0.44,9.87,0.03,-0.00,-0.00,-0.09,0.72,10.02,0.03,-0.01,-0.00,-0.25,0.45,9.97,0.03,-0.02,-0.00,0.10,0.30,10.03,0.04,-0.03,-0.01,2.05,0.24,10.27,0.0000,0.0000,0.00
26012290,-0.00,-0.00,-0.00,-0.34,0.70,9.89,-0.00,-0.00,-0.00,-0.10,0.98,9.94,-0.00,-0.00,-0.00,-0.26,0.74,9.90,-0.01,-0.00,-0.00,0.09,0.67,9.73,-0.01,-0.00,0.00,1.84,0.68,8.88,0.0000,0.0000,0.00
26022290,0.01,-0.00,-0.00,-0.31,0.53,9.97,0.01,0.00,0.00,-0.03,0.76,9.83,0.01,0.01,0.00,-0.20,0.47,9.75,0.02,0.02,0.00,0.08,0.28,9.85,0.03,0.03,-0.01,2.01,0.21,9.93,0.0000,0.0000,0.00
26032290,0.02,0.00,-0.00,-0.22,0.53,9.57,0.02,0.00,-0.00,-0.05,0.75,9.45,0.02,0.00,-0.00,-0.19,0.53,9.41,0.01,-0.00,-0.00,0.11,0.44,9.64,0.01,-0.00,-0.00,2.03,0.40,9.83,0.0000,0.0000,0.00
26042290,0.01,-0.00,-0.00,-0.23,0.65,9.50,0.01,-0.01,0.00,0.00,0.89,9.25,0.01,-0.01,-0.00,-0.15,0.67,9.42,0.01,0.00,-0.00,0.19,0.61,9.60,0.01,0.01,-0.01,1.91,0.65,9.00,0.0000,0.0000,0.00
26052290,0.01,-0.00,0.00,-0.29,0.48,10.37,0.01,0.00,-0.00,0.00,0.79,10.37,0.02,0.01,-0.00,-0.18,0.43,9.93,0.02,0.02,0.00,0.14,0.34,9.96,0.02,0.03,-0.00,2.00,0.32,9.51,0.0000,0.0000,0.00
26062290,0.04,0.00,-0.00,-0.25,0.53,9.19,0.04,0.00,-0.00,-0.06,0.78,9.12,0.04,0.01,-0.00,-0.24,0.53,9.36,0.05,0.02,-0.00,0.11,0.48,9.92,0.05,0.03,-0.01,2.00,0.43,10.18,0.0000,0.0000,0.00
26072290,0.02,0.00,0.00,-0.23,0.51,9.52,0.02,-0.00,-0.00,-0.02,0.75,9.50,0.01,-0.02,-0.00,-0.16,0.48,9.45,0.01,-0.04,0.00,0.12,0.31,9.97,0.01,-0.07,-0.00,2.11,0.24,10.72,0.0000,0.0000,0.00
26082290,0.02,0.00,-0.00,-0.25,0.48,9.78,0.02,-0.01,0.00,-0.04,0.83,9.72,0.02,-0.02,-0.00,-0.18,0.60,9.72,0.01,-0.05,-0.00,0.12,0.49,9.67,0.01,-0.08,-0.00,1.92,0.46,9.03,0.0000,0.0000,0.00
26092290,0.02,0.00,0.00,-0.27,0.51,10.28,0.02,0.00,0.00,-0.04,0.80,10.20,0.02,-0.01,0.00,-0.17,0.48,10.04,0.01,-0.02,-0.00,0.17,0.35,9.81,0.01,-0.04,-0.00,1.93,0.29,9.38,0.0000,0.0000,0.00
26102290,0.01,0.00,0.00,-0.24,0.56,9.24,0.01,-0.00,-0.00,-0.03,0.80,9.31,0.01,-0.01,0.00,-0.19,0.62,9.57,0.01,-0.02,-0.00,0.17,0.46,9.89,0.01,-0.04,-0.00,2.01,0.48,9.87,0.0000,0.0000,0.00
26112290,0.01,0.00,-0.00,-0.24,0.47,10.01,0.01,-0.01,0.00,-0.03,0.77,9.99,0.01,-0.02,0.00,-0.17,0.46,9.90,0.00,-0.04,-0.00,0.13,0.33,9.90,0.00,-0.07,0.00,2.06,0.26,9.74,0.0000,0.0000,0.00
26122290,0.01,0.00,0.00,-0.33,0.55,9.99,0.02,-0.01,-0.00,-0.05,0.82,9.94,0.01,-0.01,0.00,-0.20,0.52,9.90,0.01,-0.03,0.00,0.16,0.38,9.83,0.01,-0.05,-0.00,1.98,0.33,9.18,0.0000,0.0000,0.00
26132290,0.01,-0.00,0.00,-0.23,0.54,9.66,0.01,-0.01,-0.00,-0.04,0.80,9.71,0.01,-0.01,0.00,-0.17,0.50,9.74,0.01,-0.02,-0.00,0.19,0.39,9.82,0.01,-0.03,-0.00,2.03,0.29,9.66,0.0000,0.0000,0.00
26142290,0.02,-0.00,-0.00,-0.29,0.56,9.79,0.02,-0.01,0.00,-0.05,0.80,9.78,0.02,-0.02,-0.00,-0.21,0.51,9.71,0.02,-0.03,0.00,0.14,0.34,9.82,0.02,-0.04,-0.01,2.03,0.35,9.79,0.0000,0.0000,0.00
