226019454,-0.03,0.00,0.02,-0.39,-2.03,9.51,-0.02,-0.00,0.00,-0.18,-1.85,9.55,0.04,0.02,-0.04,-0.23,-2.09,9.58,-0.04,-0.02,0.18,0.02,-2.15,9.65,-0.01,0.02,-0.02,1.78,-2.28,9.09,0.0000,0.0000,0.00
226033529,-0.02,0.00,0.02,-0.44,-1.27,9.87,-0.01,-0.00,0.00,-0.12,-1.07,9.39,0.05,0.02,-0.04,-0.34,-1.30,10.79,-0.03,-0.02,0.18,0.03,-1.70,9.69,-0.00,-0.01,-0.03,1.82,-2.11,10.21,0.0000,0.0000,0.00
226039077,-0.04,0.00,0.02,-0.38,-2.00,9.60,-0.04,-0.01,0.00,-0.17,-1.72,9.93,0.02,0.02,-0.05,-0.22,-1.99,9.90,-0.06,-0.02,0.18,-0.01,-2.14,9.43,-0.04,0.01,-0.02,1.81,-2.21,9.72,0.0000,0.0000,0.00
226044641,-0.03,0.00,0.02,-0.40,-2.01,9.65,-0.03,-0.01,0.00,-0.09,-1.74,9.96,0.03,0.02,-0.05,-0.22,-2.09,9.61,-0.06,-0.03,0.18,0.00,-2.15,9.74,-0.04,-0.02,-0.02,1.85,-2.21,9.62,0.0000,0.0000,0.00
226050446,-0.04,0.00,0.02,-0.36,-2.01,9.70,-0.04,-0.01,0.00,-0.13,-1.79,9.82,0.02,0.02,-0.05,-0.20,-2.04,9.70,-0.06,-0.03,0.18,0.08,-2.17,9.60,-0.04,-0.00,-0.02,1.75,-2.27,9.16,0.0000,0.0000,0.00
226056168,-0.03,0.00,0.02,-0.39,-2.09,9.61,-0.03,-0.01,-0.00,-0.14,-1.85,9.62,0.04,0.02,-0.05,-0.21,-2.08,9.51,-0.04,-0.03,0.18,0.03,-2.22,9.57,-0.02,0.00,-0.02,1.80,-2.30,9.45,0.0000,0.0000,0.00
226061888,-0.02,0.00,0.02,-0.36,-2.05,9.61,-0.02,-0.00,-0.00,-0.16,-1.83,9.73,0.04,0.02,-0.05,-0.25,-2.01,9.72,-0.04,-0.03,0.18,0.04,-2.14,9.74,-0.02,0.00,-0.02,1.81,-2.22,9.56,0.0000,0.0000,0.00
226067621,-0.01,0.00,0.02,-0.39,-2.12,9.52,-0.01,-0.01,-0.00,-0.12,-1.89,9.63,0.05,0.02,-0.05,-0.22,-2.09,9.49,-0.04,-0.03,0.18,0.02,-2.15,9.55,-0.02,-0.00,-0.02,1.79,-2.30,9.46,0.0000,0.0000,0.00
226073404,0.01,0.00,0.02,-0.37,-2.05,9.56,0.01,-0.00,0.00,-0.13,-1.85,9.66,0.07,0.02,-0.05,-0.22,-2.10,9.55,-0.02,-0.03,0.18,0.02,-2.18,9.54,-0.00,-0.00,-0.03,1.82,-2.29,9.15,0.0000,0.0000,0.00
226079241,0.01,0.00,0.02,-0.39,-2.07,9.65,0.02,-0.00,-0.00,-0.13,-1.81,9.71,0.08,0.02,-0.05,-0.20,-2.05,9.64,0.00,-0.02,0.18,0.02,-2.21,9.57,0.02,0.01,-0.03,1.76,-2.25,9.29,0.0000,0.0000,0.00
226085091,0.01,0.00,0.02,-0.37,-2.05,9.70,0.02,-0.00,0.00,-0.14,-1.79,9.81,0.08,0.02,-0.05,-0.22,-1.99,9.76,0.00,-0.02,0.18,-0.01,-2.13,9.85,0.02,0.01,-0.03,1.88,-2.18,9.74,0.0000,0.0000,0.00
226092861,-0.00,0.00,0.02,-0.39,-2.00,9.71,0.00,-0.01,0.00,-0.13,-1.77,9.84,0.06,0.02,-0.05,-0.25,-2.03,9.80,-0.02,-0.03,0.18,-0.01,-2.14,9.91,-0.01,-0.00,-0.02,1.87,-2.18,9.82,0.0000,0.0000,0.00
226098621,-0.00,0.00,0.02,-0.38,-2.04,9.66,-0.00,-0.00,0.00,-0.14,-1.80,9.72,0.06,0.02,-0.05,-0.24,-2.05,9.65,-0.03,-0.03,0.18,0.04,-2.19,9.71,-0.02,-0.01,-0.02,1.84,-2.25,9.40,0.0000,0.0000,0.00
226104307,-0.00,0.00,0.02,-0.39,-2.02,9.64,0.00,-0.00,0.00,-0.11,-1.77,9.73,0.06,0.02,-0.05,-0.22,-2.05,9.61,-0.02,-0.03,0.18,0.01,-2.19,9.57,-0.00,0.00,-0.02,1.79,-2.29,9.22,0.0000,0.0000,0.00
226110005,-0.01,0.00,0.02,-0.37,-2.04,9.70,0.00,-0.00,-0.00,-0.17,-1.76,9.82,0.07,0.02,-0.05,-0.21,-2.05,9.68,-0.01,-0.02,0.18,0.03,-2.16,9.66,0.01,0.01,-0.03,1.79,-2.25,9.52,0.0000,0.0000,0.00
226115733,-0.01,0.00,0.02,-0.41,-2.01,9.71,-0.00,-0.00,-0.00,-0.13,-1.80,9.89,0.06,0.02,-0.05,-0.20,-2.04,9.79,-0.02,-0.03,0.18,0.06,-2.11,9.86,-0.00,0.00,-0.03,1.84,-2.12,9.87,0.0000,0.0000,0.00
226121531,-0.02,0.00,0.02,-0.39,-2.04,9.67,-0.01,-0.00,0.00,-0.17,-1.78,9.74,0.05,0.02,-0.05,-0.25,-2.04,9.71,-0.04,-0.03,0.18,-0.01,-2.13,9.92,-0.02,-0.01,-0.02,1.86,-2.14,9.88,0.0000,0.0000,0.00
226127379,-0.02,0.00,0.02,-0.38,-2.06,9.63,-0.01,-0.01,0.00,-0.10,-1.83,9.68,0.05,0.02,-0.05,-0.23,-2.12,9.59,-0.04,-0.03,0.18,0.02,-2.21,9.59,-0.03,-0.01,-0.02,1.74,-2.28,9.29,0.0000,0.0000,0.00
226133244,-0.01,0.00,0.02,-0.38,-2.06,9.63,-0.00,-0.01,0.00,-0.11,-1.81,9.68,0.06,0.02,-0.05,-0.23,-2.10,9.59,-0.02,-0.02,0.18,0.04,-2.17,9.55,-0.01,0.00,-0.03,1.76,-2.30,9.16,0.0000,0.0000,0.00
226138793,-0.00,0.00,0.02,-0.36,-2.07,9.58,0.00,-0.00,-0.00,-0.13,-1.83,9.75,0.07,0.03,-0.05,-0.23,-2.05,9.61,-0.01,-0.02,0.18,0.01,-2.16,9.65,0.01,0.01,-0.03,1.80,-2.27,9.51,0.0000,0.0000,0.00
226144326,0.00,0.00,0.02,-0.35,-2.05,9.60,0.01,-0.00,0.00,-0.13,-1.80,9.74,0.07,0.02,-0.05,-0.25,-2.05,9.67,-0.01,-0.02,0.18,0.03,-2.14,9.74,0.00,0.00,-0.03,1.86,-2.21,9.74,0.0000,0.0000,0.00
226150956,0.01,0.00,0.02,-0.35,-2.10,9.57,0.02,-0.01,-0.00,-0.07,-1.84,9.65,0.07,0.02,-0.04,-0.21,-2.06,9.60,-0.01,-0.03,0.18,0.00,-2.18,9.61,0.00,-0.01,-0.03,1.82,-2.26,9.46,0.0000,0.0000,0.00
226156401,0.03,0.00,0.02,-0.41,-2.08,9.46,0.04,-0.00,-0.00,-0.16,-1.86,9.56,0.09,0.02,-0.05,-0.25,-2.05,9.46,0.01,-0.03,0.18,-0.01,-2.18,9.39,0.02,-0.00,-0.03,1.74,-2.30,9.06,0.0000,0.0000,0.00
226161884,0.06,0.01,0.02,-0.33,-2.06,9.44,0.06,-0.00,0.00,-0.15,-1.86,9.50,0.12,0.02,-0.05,-0.23,-2.11,9.39,0.04,-0.02,0.18,0.00,-2.22,9.34,0.06,0.01,-0.04,1.75,-2.36,9.03,0.0000,0.0000,0.00
226167415,0.08,0.01,0.02,-0.38,-2.04,9.46,0.09,-0.00,0.00,-0.14,-1.83,9.54,0.15,0.03,-0.05,-0.24,-2.03,9.47,0.07,-0.02,0.18,0.00,-2.21,9.49,0.08,0.01,-0.04,1.76,-2.31,9.35,0.0000,0.0000,0.00
226173272,0.10,0.01,0.02,-0.33,-2.05,9.49,0.11,0.00,0.00,-0.11,-1.79,9.60,0.17,0.03,-0.05,-0.27,-2.06,9.52,0.08,-0.02,0.18,0.00,-2.18,9.59,0.10,0.01,-0.04,1.83,-2.25,9.48,0.0000,0.0000,0.00
226179164,0.12,0.01,0.02,-0.38,-2.06,9.53,0.13,-0.00,0.00,-0.17,-1.82,9.61,0.18,0.03,-0.05,-0.21,-2.00,9.52,0.09,-0.02,0.18,0.02,-2.13,9.59,0.11,0.01,-0.05,1.80,-2.23,9.38,0.0000,0.0000,0.00
226185025,0.14,0.01,0.02,-0.38,-2.05,9.51,0.14,-0.00,0.00,-0.12,-1.81,9.58,0.20,0.03,-0.05,-0.25,-2.05,9.48,0.11,-0.02,0.18,0.03,-2.16,9.42,0.13,0.01,-0.05,1.76,-2.23,9.16,0.0000,0.0000,0.00
226190796,0.16,0.01,0.02,-0.36,-2.01,9.53,0.16,0.00,-0.00,-0.11,-1.76,9.61,0.22,0.03,-0.05,-0.19,-2.04,9.54,0.14,-0.02,0.18,0.02,-2.12,9.44,0.15,0.01,-0.06,1.79,-2.24,9.23,0.0000,0.0000,0.00
226196543,0.18,0.01,0.02,-0.37,-2.02,9.54,0.18,0.00,-0.00,-0.07,-1.73,9.63,0.24,0.04,-0.05,-0.23,-1.96,9.47,0.16,-0.02,0.18,0.02,-2.09,9.57,0.17,0.02,-0.06,1.78,-2.19,9.38,0.0000,0.0000,0.00
226202253,0.19,0.01,0.02,-0.38,-1.95,9.57,0.20,0.00,-0.00,-0.17,-1.72,9.69,0.26,0.03,-0.04,-0.23,-2.01,9.54,0.17,-0.02,0.17,0.00,-2.08,9.58,0.18,0.02,-0.07,1.80,-2.17,9.44,0.0000,0.0000,0.00
226208011,0.20,0.01,0.02,-0.33,-1.97,9.56,0.21,0.00,0.00,-0.15,-1.73,9.70,0.27,0.04,-0.05,-0.22,-1.95,9.60,0.18,-0.02,0.17,0.04,-2.06,9.59,0.19,0.02,-0.07,1.85,-2.15,9.35,0.0000,0.0000,0.00
226213808,0.21,0.01,0.03,-0.36,-1.95,9.66,0.22,0.00,0.00,-0.13,-1.69,9.71,0.27,0.04,-0.04,-0.23,-1.92,9.61,0.19,-0.02,0.18,0.02,-2.06,9.70,0.21,0.02,-0.07,1.84,-2.14,9.42,0.0000,0.0000,0.00
226219626,0.22,0.01,0.02,-0.34,-1.96,9.55,0.22,0.00,-0.00,-0.11,-1.69,9.73,0.28,0.04,-0.05,-0.22,-1.90,9.76,0.19,-0.01,0.18,0.00,-2.05,9.70,0.21,0.02,-0.07,1.80,-2.10,9.50,0.0000,0.0000,0.00
226225482,0.21,0.01,0.02,-0.39,-1.88,9.72,0.22,0.00,-0.00,-0.11,-1.66,9.77,0.28,0.04,-0.04,-0.23,-1.94,9.63,0.19,-0.02,0.17,-0.01,-2.06,9.82,0.21,0.02,-0.07,1.88,-2.17,9.68,0.0000,0.0000,0.00
226231303,0.21,0.01,0.02,-0.40,-1.88,9.63,0.22,0.00,-0.00,-0.13,-1.69,9.77,0.27,0.03,-0.05,-0.25,-1.92,9.68,0.19,-0.02,0.18,-0.01,-2.02,9.74,0.20,0.02,-0.07,1.80,-2.13,9.58,0.0000,0.0000,0.00
226237070,0.22,0.01,0.02,-0.37,-1.90,9.65,0.22,0.00,0.00,-0.11,-1.66,9.68,0.28,0.03,-0.04,-0.25,-1.92,9.61,0.19,-0.02,0.18,0.02,-2.00,9.71,0.20,0.02,-0.07,1.82,-2.13,9.51,0.0000,0.0000,0.00
226242805,0.22,0.01,0.02,-0.38,-1.92,9.62,0.23,0.00,0.00,-0.17,-1.64,9.67,0.28,0.04,-0.04,-0.24,-1.88,9.65,0.20,-0.02,0.18,0.00,-2.03,9.70,0.21,0.02,-0.07,1.80,-2.14,9.38,0.0000,0.0000,0.00
226248531,0.23,0.01,0.02,-0.35,-1.93,9.61,0.24,0.00,0.00,-0.16,-1.63,9.65,0.30,0.03,-0.04,-0.24,-1.90,9.55,0.21,-0.01,0.18,0.02,-2.02,9.58,0.22,0.02,-0.07,1.79,-2.07,9.38,0.0000,0.0000,0.00
226254306,0.25,0.01,0.02,-0.35,-1.87,9.57,0.25,0.00,0.00,-0.12,-1.60,9.62,0.31,0.04,-0.04,-0.22,-1.86,9.59,0.22,-0.01,0.18,0.04,-1.96,9.56,0.24,0.02,-0.08,1.81,-2.10,9.41,0.0000,0.0000,0.00
226259866,0.26,0.01,0.03,-0.35,-1.83,9.56,0.26,0.01,-0.00,-0.09,-1.65,9.64,0.32,0.04,-0.04,-0.19,-1.92,9.58,0.24,-0.01,0.18,0.03,-1.99,9.60,0.25,0.02,-0.08,1.79,-2.07,9.32,0.0000,0.0000,0.00
226265427,0.27,0.01,0.02,-0.30,-1.77,9.59,0.28,0.01,-0.00,-0.05,-1.52,9.70,0.34,0.04,-0.04,-0.17,-1.73,9.56,0.25,-0.01,0.17,0.08,-1.96,9.54,0.26,0.02,-0.08,1.84,-2.04,9.35,0.0000,0.0000,0.00
226272628,0.29,0.01,0.03,-0.40,-1.75,9.66,0.29,0.01,-0.00,-0.14,-1.50,9.73,0.35,0.04,-0.04,-0.25,-1.71,9.66,0.27,-0.01,0.18,0.03,-1.88,9.73,0.28,0.03,-0.09,1.79,-1.99,9.45,0.0000,0.0000,0.00
226279334,0.30,0.01,0.03,-0.43,-1.75,9.66,0.30,0.01,-0.00,-0.11,-1.48,9.72,0.36,0.04,-0.04,-0.25,-1.74,9.66,0.27,-0.01,0.17,0.00,-1.82,9.69,0.28,0.03,-0.09,1.84,-1.92,9.58,0.0000,0.0000,0.00
226284765,0.30,0.01,0.03,-0.31,-1.73,9.78,0.31,0.01,0.00,-0.08,-1.47,9.92,0.37,0.04,-0.04,-0.19,-1.69,9.67,0.28,-0.02,0.17,0.07,-1.81,9.61,0.29,0.03,-0.09,1.85,-1.92,9.51,0.0000,0.0000,0.00
226290227,0.31,0.01,0.03,-0.39,-1.73,9.62,0.31,0.01,-0.00,-0.15,-1.47,9.77,0.37,0.04,-0.04,-0.22,-1.75,9.76,0.28,-0.01,0.18,0.02,-1.87,9.64,0.29,0.03,-0.09,1.77,-1.89,9.55,0.0000,0.0000,0.00
226295964,0.31,0.01,0.03,-0.34,-1.64,9.69,0.31,0.01,-0.00,-0.13,-1.45,9.77,0.37,0.04,-0.04,-0.20,-1.70,9.61,0.29,-0.01,0.17,0.02,-1.80,9.70,0.30,0.02,-0.09,1.80,-1.91,9.61,0.0000,0.0000,0.00
226301798,0.31,0.01,0.02,-0.50,-1.61,9.75,0.31,0.01,0.00,-0.24,-1.33,9.88,0.37,0.04,-0.04,-0.40,-1.65,9.90,0.29,-0.01,0.17,-0.16,-1.77,9.85,0.30,0.03,-0.09,1.64,-1.89,9.62,0.0000,0.0000,0.00
226307687,0.31,0.01,0.03,-0.36,-1.63,9.73,0.31,0.01,0.00,-0.14,-1.40,9.76,0.37,0.04,-0.04,-0.26,-1.59,9.86,0.29,-0.01,0.18,0.04,-1.73,9.95,0.29,0.03,-0.09,1.80,-1.85,9.41,0.0000,0.0000,0.00
226313549,0.30,0.01,0.03,-0.37,-1.62,9.73,0.31,0.01,0.00,-0.15,-1.38,9.89,0.36,0.04,-0.04,-0.22,-1.61,9.85,0.27,-0.01,0.18,0.03,-1.77,9.87,0.28,0.03,-0.08,1.83,-1.81,9.80,0.0000,0.0000,0.00
226319428,0.31,0.01,0.02,-0.37,-1.63,9.66,0.31,0.00,0.00,-0.12,-1.33,9.81,0.36,0.04,-0.04,-0.25,-1.59,9.69,0.28,-0.02,0.18,0.00,-1.73,9.73,0.28,0.02,-0.09,1.79,-1.82,9.55,0.0000,0.0000,0.00
226325246,0.31,0.01,0.03,-0.35,-1.56,9.63,0.32,0.00,0.00,-0.14,-1.25,9.78,0.38,0.04,-0.04,-0.24,-1.48,9.68,0.29,-0.02,0.18,0.03,-1.58,9.57,0.30,0.02,-0.09,1.80,-1.70,9.33,0.0000,0.0000,0.00
226330975,0.34,0.01,0.03,-0.34,-1.06,9.54,0.34,0.00,-0.00,-0.16,-0.66,9.53,0.40,0.04,-0.04,-0.26,-0.85,9.43,0.31,-0.01,0.17,0.02,-0.82,9.31,0.32,0.03,-0.10,1.67,-0.81,9.16,0.0000,0.0000,0.00
226336725,0.38,0.01,0.04,-0.35,-0.15,9.42,0.38,0.01,0.01,-0.11,0.37,9.39,0.45,0.05,-0.03,-0.32,0.52,9.19,0.37,-0.01,0.18,0.04,0.79,9.36,0.38,0.02,-0.10,1.67,1.00,9.08,0.0000,0.0000,0.00
226342473,0.40,0.01,0.05,-0.32,0.18,9.58,0.41,0.01,0.02,-0.07,0.75,9.55,0.47,0.05,-0.01,-0.26,0.74,9.63,0.39,-0.01,0.20,0.08,0.73,9.82,0.40,0.04,-0.08,1.78,0.79,9.30,0.0000,0.0000,0.00
226348276,0.42,0.01,0.07,-0.34,0.89,9.38,0.42,0.01,0.03,-0.10,1.29,9.44,0.48,0.05,-0.01,-0.29,1.30,9.46,0.40,-0.01,0.21,0.02,1.53,9.26,0.42,0.03,-0.08,1.66,1.87,9.69,0.0000,0.0000,0.00
226354112,0.46,0.01,0.08,0.05,0.82,9.58,0.46,0.01,0.05,0.29,1.25,9.55,0.52,0.05,0.02,0.19,1.73,9.59,0.44,-0.01,0.23,0.53,2.54,9.71,0.45,0.02,-0.07,2.10,3.46,9.25,0.0000,0.0000,0.00
226360003,0.49,0.02,0.11,-0.25,1.73,9.85,0.49,0.01,0.08,0.02,2.52,9.23,0.55,0.05,0.04,-0.25,3.31,8.48,0.46,-0.01,0.24,0.04,4.38,9.32,0.47,0.04,-0.05,1.61,5.44,8.80,0.0000,0.0000,0.00
226365905,0.50,0.02,0.13,-0.23,2.01,9.61,0.51,0.01,0.11,0.01,2.80,9.69,0.57,0.05,0.07,-0.19,3.29,9.86,0.48,-0.00,0.28,0.16,4.09,9.64,0.51,0.05,-0.02,1.71,5.38,9.63,0.0000,0.0000,0.00
226371742,0.50,0.02,0.17,-0.19,2.56,9.92,0.51,0.01,0.13,-0.01,3.28,9.56,0.56,0.05,0.09,-0.25,3.68,9.84,0.48,-0.00,0.31,0.09,4.17,9.59,0.52,0.05,0.00,1.75,4.77,10.19,0.0000,0.0000,0.00
226377483,0.51,0.02,0.20,-0.27,2.58,10.01,0.51,0.02,0.16,0.01,3.60,10.06,0.56,0.05,0.12,-0.27,4.08,10.35,0.48,-0.01,0.34,0.28,4.59,10.14,0.51,0.03,0.03,1.80,5.05,10.07,0.0000,0.0000,0.00
226383254,0.49,0.01,0.22,-0.27,1.98,10.15,0.48,0.01,0.19,-0.02,2.74,10.27,0.53,0.05,0.16,-0.22,3.00,10.20,0.43,-0.01,0.36,0.19,3.60,9.88,0.47,0.03,0.07,1.87,4.49,10.01,0.0000,0.0000,0.00
226388734,0.46,0.01,0.25,-0.42,1.56,9.91,0.46,0.02,0.21,-0.10,1.94,9.97,0.51,0.05,0.17,-0.46,2.28,10.05,0.43,-0.01,0.38,0.02,2.58,9.44,0.47,0.03,0.09,1.69,3.07,10.28,0.0000,0.0000,0.00
226394291,0.45,0.01,0.26,-0.29,0.60,10.15,0.44,0.01,0.23,-0.16,1.07,10.05,0.48,0.04,0.20,-0.26,1.30,9.96,0.39,-0.01,0.41,0.00,1.71,10.23,0.44,0.03,0.12,1.84,2.24,10.12,0.0000,0.0000,0.00
226401044,0.41,0.01,0.28,-0.37,0.29,9.60,0.41,0.01,0.26,-0.13,1.15,9.81,0.45,0.04,0.21,-0.31,1.11,10.18,0.38,-0.01,0.41,0.07,1.45,9.88,0.45,0.03,0.14,1.71,1.35,9.98,0.0000,0.0000,0.00
226406608,0.39,0.02,0.30,-0.33,-0.49,10.49,0.39,0.01,0.27,-0.07,-0.26,10.19,0.44,0.04,0.24,-0.34,-0.39,10.20,0.35,-0.01,0.46,0.04,-0.43,10.62,0.40,0.02,0.16,1.93,-0.49,10.33,0.0000,0.0000,0.00
226412140,0.36,0.01,0.29,-0.41,-2.03,10.22,0.37,0.00,0.26,-0.21,-2.03,10.07,0.40,0.04,0.23,-0.38,-2.33,10.32,0.32,-0.02,0.44,-0.09,-2.33,9.77,0.38,0.02,0.17,1.69,-2.10,10.75,0.0000,0.0000,0.00
226417598,0.34,0.02,0.31,-0.39,-2.83,10.20,0.34,0.01,0.26,-0.07,-2.82,10.46,0.38,0.02,0.21,-0.26,-3.17,10.24,0.29,-0.02,0.44,-0.01,-3.50,10.61,0.35,0.01,0.17,1.89,-3.91,9.79,0.0000,0.0000,0.00
226423360,0.35,0.01,0.28,-0.49,-2.91,10.23,0.34,0.02,0.25,-0.11,-3.17,10.05,0.39,0.04,0.22,-0.22,-4.19,10.01,0.30,-0.03,0.44,0.07,-5.26,10.24,0.34,0.01,0.16,2.13,-6.40,10.29,0.0000,0.0000,0.00
226429127,0.30,0.01,0.26,-0.58,-4.54,9.77,0.30,0.02,0.23,-0.29,-4.29,10.84,0.35,0.03,0.17,-0.33,-4.73,10.31,0.27,-0.02,0.40,-0.13,-5.10,9.23,0.32,0.02,0.14,1.80,-5.67,9.75,0.0000,0.0000,0.00
226434882,0.26,0.01,0.24,-0.39,-5.55,10.66,0.25,0.00,0.20,-0.11,-5.67,10.81,0.29,0.03,0.16,-0.18,-6.61,9.91,0.20,-0.03,0.38,-0.03,-7.35,10.03,0.23,0.02,0.13,2.02,-8.34,10.80,0.0000,0.0000,0.00
226440724,0.23,0.00,0.19,-0.51,-6.75,10.43,0.23,-0.00,0.17,-0.25,-7.14,10.59,0.27,0.02,0.12,-0.27,-8.30,10.65,0.19,-0.03,0.34,-0.21,-9.34,10.65,0.25,0.00,0.10,1.82,-10.08,9.64,0.0000,0.0000,0.00
226446600,0.19,0.00,0.14,-0.71,-7.71,9.98,0.19,-0.00,0.12,-0.49,-8.76,10.16,0.23,0.03,0.08,-0.42,-10.15,10.45,0.14,-0.03,0.30,-0.42,-11.29,10.68,0.16,0.01,0.06,1.85,-12.41,9.72,0.0000,0.0000,0.00
226453938,0.16,0.00,0.07,-1.04,-8.68,10.05,0.16,-0.00,0.05,-0.74,-9.95,10.71,0.21,0.02,0.01,-0.69,-11.77,10.52,0.12,-0.02,0.22,-0.69,-13.46,10.53,0.15,0.02,-0.01,1.65,-15.07,9.93,0.0000,0.0000,0.00
226459770,0.16,0.00,0.01,-1.19,-3.74,9.40,0.16,-0.00,-0.01,-0.97,-3.80,9.55,0.21,0.03,-0.05,-0.98,-4.41,9.14,0.13,-0.02,0.17,-0.87,-4.70,8.85,0.16,-0.00,-0.07,0.93,-5.37,9.19,0.0000,0.0000,0.00
226465525,0.18,0.01,0.02,-0.44,-1.18,9.85,0.18,0.00,0.00,-0.23,-1.04,10.18,0.23,0.03,-0.04,-0.36,-1.35,10.49,0.15,-0.02,0.18,-0.06,-1.49,10.82,0.16,0.03,-0.06,1.89,-1.26,9.87,0.0000,0.0000,0.00
226471250,0.19,0.00,0.03,-0.42,-1.33,9.60,0.17,-0.01,0.00,-0.20,-1.17,9.58,0.22,0.03,-0.04,-0.30,-1.50,9.41,0.13,-0.01,0.18,-0.05,-1.66,9.39,0.14,0.02,-0.05,1.71,-2.04,10.04,0.0000,0.0000,0.00
226476984,0.25,0.00,0.02,-0.43,-1.17,9.61,0.26,0.00,-0.00,-0.18,-0.96,9.63,0.32,0.03,-0.04,-0.32,-1.21,9.51,0.24,-0.03,0.17,-0.06,-1.39,9.78,0.27,-0.01,-0.08,1.77,-1.51,9.53,0.0000,0.0000,0.00
226482716,0.25,0.01,0.03,-0.48,-1.01,9.91,0.25,-0.00,0.00,-0.20,-0.76,10.10,0.31,0.03,-0.04,-0.33,-1.01,10.01,0.22,-0.02,0.18,-0.04,-1.12,9.92,0.23,0.02,-0.07,1.72,-1.15,9.25,0.0000,0.0000,0.00
226488565,0.23,0.00,0.02,-0.43,-1.04,9.85,0.23,-0.00,0.00,-0.24,-0.84,9.95,0.29,0.03,-0.04,-0.33,-1.13,9.86,0.20,-0.02,0.18,-0.10,-1.24,9.94,0.22,0.03,-0.07,1.77,-1.38,9.83,0.0000,0.0000,0.00
226494468,0.22,0.00,0.03,-0.40,-1.06,9.87,0.22,-0.00,-0.00,-0.14,-0.80,10.05,0.28,0.03,-0.04,-0.29,-1.09,9.92,0.19,-0.02,0.18,-0.02,-1.17,10.03,0.21,0.01,-0.07,1.89,-1.21,10.30,0.0000,0.0000,0.00
226500356,0.19,0.01,0.03,-0.48,-0.97,9.93,0.20,-0.00,-0.00,-0.18,-0.77,9.91,0.25,0.03,-0.04,-0.30,-1.03,10.02,0.17,-0.03,0.17,-0.07,-1.20,9.99,0.18,0.00,-0.06,1.84,-1.17,9.85,0.0000,0.0000,0.00
226509481,0.17,0.00,0.02,-0.41,-1.02,9.85,0.17,-0.00,0.00,-0.21,-0.80,9.88,0.23,0.03,-0.05,-0.29,-1.10,9.79,0.15,-0.02,0.18,-0.04,-1.18,9.88,0.16,0.01,-0.06,1.79,-1.23,9.60,0.0000,0.0000,0.00
226514987,0.17,0.00,0.02,-0.43,-1.04,9.78,0.16,0.00,0.00,-0.20,-0.86,9.80,0.22,0.02,-0.05,-0.35,-1.09,9.99,0.14,-0.02,0.18,-0.09,-1.21,9.88,0.15,0.01,-0.06,1.76,-1.25,9.76,0.0000,0.0000,0.00
226520510,0.16,0.01,0.02,-0.43,-0.94,9.84,0.16,-0.00,0.00,-0.20,-0.74,9.94,0.22,0.03,-0.04,-0.36,-1.07,9.91,0.14,-0.02,0.18,-0.09,-1.14,9.94,0.15,0.01,-0.06,1.74,-1.24,9.83,0.0000,0.0000,0.00
226526059,0.16,0.00,0.02,-0.40,-1.05,9.80,0.16,-0.00,0.00,-0.19,-0.80,9.84,0.22,0.03,-0.04,-0.29,-1.03,9.88,0.13,-0.02,0.18,-0.04,-1.18,9.94,0.14,0.01,-0.06,1.77,-1.20,9.63,0.0000,0.0000,0.00
226537548,0.21,-0.00,0.02,-0.40,-1.11,9.89,0.21,-0.00,0.00,-0.18,-0.83,9.75,0.27,0.03,-0.04,-0.27,-1.07,9.61,0.19,-0.02,0.18,-0.02,-1.17,9.58,0.21,0.01,-0.07,1.69,-1.34,9.60,0.0000,0.0000,0.00
226543133,0.23,0.01,0.03,-0.39,-1.03,9.73,0.24,0.00,-0.00,-0.13,-0.79,9.82,0.30,0.03,-0.04,-0.32,-1.02,9.87,0.22,-0.02,0.18,-0.01,-1.18,9.81,0.23,0.02,-0.07,1.71,-1.28,9.57,0.0000,0.0000,0.00
226548713,0.25,0.00,0.03,-0.45,-0.96,9.73,0.26,-0.00,-0.00,-0.20,-0.69,9.78,0.31,0.03,-0.04,-0.33,-0.99,9.74,0.23,-0.02,0.17,-0.09,-1.11,9.94,0.25,0.02,-0.08,1.79,-1.25,9.85,0.0000,0.0000,0.00
226554554,0.27,0.00,0.02,-0.49,-1.04,9.72,0.28,0.00,0.00,-0.23,-0.74,9.86,0.33,0.03,-0.04,-0.35,-1.06,9.85,0.24,-0.02,0.18,-0.07,-1.23,9.84,0.26,0.01,-0.08,1.74,-1.33,9.75,0.0000,0.0000,0.00
226560320,0.32,0.01,0.03,-0.49,-1.01,9.87,0.32,0.00,-0.00,-0.15,-0.79,9.94,0.37,0.03,-0.05,-0.32,-1.08,9.70,0.29,-0.02,0.17,-0.01,-1.24,9.71,0.30,0.01,-0.09,1.69,-1.43,9.45,0.0000,0.0000,0.00
226566050,0.34,-0.00,0.03,-0.42,-0.90,9.95,0.35,0.00,-0.00,-0.16,-0.60,9.83,0.41,0.04,-0.04,-0.30,-0.85,9.82,0.33,-0.02,0.17,-0.04,-1.03,9.78,0.34,0.02,-0.10,1.78,-1.17,9.48,0.0000,0.0000,0.00
226571826,0.34,0.00,0.03,-0.41,-0.80,9.91,0.33,-0.00,-0.00,-0.16,-0.54,10.23,0.39,0.03,-0.04,-0.28,-0.85,10.01,0.30,-0.01,0.17,0.02,-0.99,9.92,0.31,0.03,-0.09,1.78,-1.05,9.76,0.0000,0.0000,0.00
226577649,0.32,-0.00,0.03,-0.47,-0.90,9.94,0.32,0.00,-0.00,-0.21,-0.64,10.07,0.38,0.04,-0.04,-0.34,-0.95,10.04,0.30,-0.02,0.17,-0.02,-1.10,10.01,0.31,0.02,-0.09,1.78,-1.19,9.99,0.0000,0.0000,0.00
226583541,0.32,-0.00,0.03,-0.38,-0.81,9.95,0.32,0.00,-0.00,-0.20,-0.56,9.82,0.37,0.04,-0.04,-0.28,-0.82,9.97,0.29,-0.02,0.17,-0.03,-0.98,10.11,0.29,0.02,-0.09,1.82,-0.98,9.73,0.0000,0.0000,0.00
226589389,0.31,0.00,0.04,-0.47,-0.81,9.82,0.31,0.00,0.00,-0.19,-0.61,9.82,0.36,0.04,-0.04,-0.40,-0.90,9.66,0.28,-0.02,0.17,-0.08,-0.98,9.94,0.29,0.02,-0.09,1.68,-1.07,9.69,0.0000,0.0000,0.00
226595260,0.31,-0.00,0.03,-0.41,-0.88,9.85,0.31,-0.00,0.00,-0.15,-0.62,10.00,0.37,0.04,-0.04,-0.31,-0.84,9.74,0.28,-0.02,0.17,-0.01,-1.00,9.82,0.29,0.02,-0.09,1.77,-1.12,9.74,0.0000,0.0000,0.00
226601088,0.32,-0.00,0.02,-0.44,-0.77,10.00,0.32,0.00,-0.00,-0.22,-0.55,9.87,0.38,0.04,-0.04,-0.31,-0.81,9.80,0.30,-0.02,0.18,-0.01,-0.95,9.83,0.31,0.02,-0.09,1.76,-1.08,9.73,0.0000,0.0000,0.00
226606817,0.32,-0.00,0.03,-0.49,-0.72,10.01,0.32,-0.00,-0.01,-0.19,-0.51,10.45,0.38,0.04,-0.05,-0.36,-0.81,9.66,0.29,-0.02,0.17,-0.05,-0.87,10.51,0.29,0.03,-0.09,1.56,-1.01,9.03,0.0000,0.0000,0.00
226612535,0.32,0.00,0.03,-0.44,-0.75,9.75,0.31,0.00,0.00,-0.23,-0.53,9.88,0.37,0.03,-0.04,-0.34,-0.83,10.04,0.28,-0.02,0.17,-0.10,-0.93,9.91,0.29,0.02,-0.09,1.81,-0.92,10.01,0.0000,0.0000,0.00
226618327,0.31,0.00,0.03,-0.44,-0.74,9.85,0.31,-0.00,0.00,-0.22,-0.53,9.87,0.36,0.04,-0.04,-0.31,-0.81,9.85,0.28,-0.02,0.18,-0.08,-0.95,10.00,0.30,0.02,-0.09,1.77,-1.04,9.85,0.0000,0.0000,0.00
226624173,0.32,-0.00,0.03,-0.49,-0.76,9.95,0.32,-0.00,-0.00,-0.28,-0.62,10.06,0.37,0.03,-0.03,-0.37,-0.99,10.12,0.29,-0.02,0.18,-0.11,-0.95,9.52,0.30,0.02,-0.09,1.68,-0.98,10.20,0.0000,0.0000,0.00
226630081,0.33,-0.00,0.03,-0.38,-0.69,9.90,0.32,0.00,0.00,-0.12,-0.42,9.88,0.38,0.03,-0.04,-0.32,-0.64,9.99,0.30,-0.02,0.18,0.02,-0.73,10.04,0.31,0.02,-0.09,1.83,-0.81,9.61,0.0000,0.0000,0.00
226637574,0.34,-0.00,0.03,-0.40,-0.67,9.74,0.33,-0.00,0.00,-0.16,-0.45,9.96,0.38,0.03,-0.04,-0.28,-0.66,9.86,0.30,-0.02,0.18,-0.02,-0.88,9.81,0.32,0.02,-0.09,1.79,-1.03,9.93,0.0000,0.0000,0.00
226643117,0.35,-0.00,0.03,-0.40,-0.84,9.78,0.35,0.00,0.00,-0.18,-0.66,9.96,0.41,0.03,-0.04,-0.33,-0.86,9.99,0.33,-0.03,0.18,-0.03,-0.88,10.00,0.34,0.02,-0.10,1.78,-0.84,9.97,0.0000,0.0000,0.00
226648700,0.34,-0.00,0.03,-0.43,-0.56,10.01,0.34,0.00,0.00,-0.22,-0.28,9.96,0.40,0.03,-0.04,-0.34,-0.47,9.92,0.33,-0.03,0.18,-0.04,-0.63,10.00,0.34,0.01,-0.10,1.81,-0.71,9.94,0.0000,0.0000,0.00
226654208,0.33,-0.00,0.03,-0.41,-0.50,9.98,0.33,-0.00,0.00,-0.23,-0.33,10.04,0.38,0.03,-0.04,-0.33,-0.57,10.08,0.29,-0.03,0.18,-0.02,-0.68,10.06,0.29,0.01,-0.09,1.77,-0.81,9.92,0.0000,0.0000,0.00
226660806,0.34,0.00,0.03,-0.37,-0.65,9.97,0.34,-0.00,0.00,-0.17,-0.39,9.96,0.40,0.03,-0.04,-0.30,-0.72,9.92,0.32,-0.03,0.17,-0.03,-0.84,10.05,0.34,0.01,-0.09,1.80,-1.03,9.97,0.0000,0.0000,0.00
226666343,0.34,-0.00,0.03,-0.36,-0.56,9.93,0.34,-0.00,0.00,-0.17,-0.38,9.89,0.40,0.03,-0.04,-0.34,-0.57,9.80,0.32,-0.03,0.18,-0.01,-0.71,9.84,0.33,0.00,-0.09,1.76,-0.72,9.91,0.0000,0.0000,0.00
226671900,0.35,-0.00,0.03,-0.44,-0.57,9.89,0.35,-0.00,0.00,-0.24,-0.34,9.94,0.40,0.03,-0.04,-0.33,-0.64,9.91,0.32,-0.03,0.18,-0.02,-0.79,9.96,0.33,0.01,-0.09,1.73,-0.84,9.67,0.0000,0.0000,0.00
226677793,0.37,0.00,0.03,-0.41,-0.60,9.95,0.37,0.00,0.00,-0.18,-0.44,10.13,0.43,0.03,-0.04,-0.25,-0.66,10.23,0.35,-0.03,0.17,-0.01,-0.83,9.80,0.37,0.01,-0.10,1.72,-0.98,9.59,0.0000,0.0000,0.00
226683659,0.37,0.00,0.03,-0.41,-0.49,9.91,0.37,0.00,0.00,-0.20,-0.27,10.03,0.43,0.03,-0.04,-0.35,-0.41,10.02,0.34,-0.03,0.18,-0.07,-0.58,9.94,0.35,0.02,-0.10,1.76,-0.60,9.82,0.0000,0.0000,0.00
226689503,0.37,0.00,0.03,-0.39,-0.53,9.81,0.37,-0.00,0.00,-0.17,-0.38,9.99,0.42,0.03,-0.04,-0.29,-0.61,9.90,0.33,-0.02,0.17,-0.03,-0.74,10.05,0.34,0.02,-0.10,1.78,-0.83,9.74,0.0000,0.0000,0.00
226695329,0.38,0.01,0.02,-0.40,-0.42,9.94,0.37,0.00,-0.00,-0.14,-0.22,10.07,0.44,0.03,-0.04,-0.33,-0.54,9.96,0.36,-0.02,0.17,-0.04,-0.76,9.70,0.37,0.02,-0.10,1.90,-0.84,9.97,0.0000,0.0000,0.00
226701049,0.37,0.00,0.03,-0.35,-0.44,9.81,0.36,-0.00,0.00,-0.11,-0.16,9.95,0.42,0.03,-0.05,-0.33,-0.40,10.03,0.34,-0.03,0.17,-0.01,-0.54,10.07,0.35,0.01,-0.10,1.82,-0.57,9.99,0.0000,0.0000,0.00
226706739,0.36,-0.00,0.03,-0.38,-0.50,9.93,0.36,-0.01,0.00,-0.14,-0.30,9.88,0.42,0.03,-0.03,-0.31,-0.52,10.01,0.33,-0.03,0.17,0.00,-0.66,10.21,0.34,0.01,-0.10,1.86,-0.78,9.85,0.0000,0.0000,0.00
226712533,0.36,-0.00,0.03,-0.39,-0.38,9.72,0.36,-0.00,0.00,-0.17,-0.18,9.86,0.42,0.03,-0.04,-0.30,-0.49,9.87,0.34,-0.03,0.17,-0.01,-0.63,10.01,0.35,0.01,-0.10,1.78,-0.66,9.80,0.0000,0.0000,0.00
226718383,0.34,-0.00,0.03,-0.40,-0.37,9.99,0.34,-0.01,0.00,-0.23,-0.16,9.97,0.40,0.03,-0.04,-0.34,-0.46,9.84,0.32,-0.03,0.17,-0.09,-0.57,9.71,0.32,0.01,-0.09,1.75,-0.60,9.91,0.0000,0.0000,0.00
226724153,0.35,-0.00,0.03,-0.38,-0.46,9.84,0.35,-0.00,-0.00,-0.20,-0.19,10.10,0.41,0.03,-0.04,-0.32,-0.46,10.01,0.33,-0.03,0.17,-0.04,-0.68,9.73,0.34,0.01,-0.10,1.77,-0.82,9.85,0.0000,0.0000,0.00
226729975,0.36,-0.00,0.02,-0.39,-0.41,9.88,0.36,-0.00,-0.00,-0.20,-0.19,10.06,0.42,0.03,-0.04,-0.29,-0.41,10.11,0.34,-0.03,0.17,-0.03,-0.50,9.85,0.35,0.01,-0.10,1.74,-0.54,9.74,0.0000,0.0000,0.00
226735787,0.36,0.00,0.03,-0.44,-0.35,9.93,0.36,-0.00,-0.00,-0.22,-0.17,10.02,0.42,0.03,-0.04,-0.36,-0.41,9.90,0.34,-0.03,0.18,-0.10,-0.59,9.82,0.35,0.01,-0.10,1.74,-0.68,9.88,0.0000,0.0000,0.00
226741635,0.38,0.00,0.04,-0.43,-0.36,9.96,0.38,-0.00,-0.00,-0.20,-0.07,10.00,0.44,0.03,-0.04,-0.41,-0.39,9.98,0.36,-0.03,0.18,-0.03,-0.52,9.97,0.37,0.02,-0.10,1.72,-0.66,9.74,0.0000,0.0000,0.00
226747394,0.40,-0.00,0.03,-0.46,-0.38,10.10,0.40,-0.01,-0.00,-0.22,-0.23,10.10,0.46,0.03,-0.04,-0.36,-0.39,9.99,0.38,-0.03,0.17,-0.07,-0.46,10.14,0.39,0.01,-0.11,1.71,-0.47,9.83,0.0000,0.0000,0.00
226753171,0.41,-0.00,0.04,-0.38,-0.31,9.99,0.41,-0.01,-0.00,-0.20,-0.06,10.01,0.47,0.03,-0.04,-0.36,-0.32,10.12,0.39,-0.03,0.18,-0.01,-0.51,9.91,0.40,0.01,-0.11,1.82,-0.59,9.87,0.0000,0.0000,0.00
226758926,0.43,-0.01,0.03,-0.38,-0.25,9.97,0.42,-0.01,0.00,-0.18,-0.02,9.56,0.48,0.03,-0.04,-0.44,-0.36,9.86,0.40,-0.03,0.17,-0.04,-0.43,10.05,0.41,0.01,-0.11,1.74,-0.59,9.90,0.0000,0.0000,0.00
226764484,0.44,-0.00,0.04,-0.34,-0.28,9.87,0.44,-0.00,-0.00,-0.18,-0.03,9.71,0.50,0.03,-0.04,-0.34,-0.26,9.93,0.41,-0.03,0.17,-0.01,-0.33,10.16,0.43,0.01,-0.12,1.78,-0.48,9.75,0.0000,0.0000,0.00
226770093,0.44,0.00,0.03,-0.41,-0.16,9.88,0.44,-0.01,0.00,-0.20,0.02,10.02,0.50,0.03,-0.04,-0.30,-0.31,9.89,0.42,-0.03,0.17,-0.01,-0.47,10.07,0.43,0.01,-0.12,1.81,-0.48,9.66,0.0000,0.0000,0.00
226775650,0.44,-0.00,0.03,-0.41,-0.18,9.92,0.43,-0.01,0.00,-0.23,0.08,9.84,0.49,0.03,-0.04,-0.37,-0.21,10.00,0.41,-0.03,0.17,-0.03,-0.30,9.94,0.42,0.01,-0.11,1.77,-0.36,9.64,0.0000,0.0000,0.00
226782325,0.44,0.00,0.03,-0.44,-0.06,9.93,0.44,-0.01,0.00,-0.23,0.12,9.93,0.50,0.03,-0.04,-0.36,-0.17,9.87,0.41,-0.03,0.17,-0.09,-0.30,9.91,0.42,0.01,-0.11,1.76,-0.47,9.86,0.0000,0.0000,0.00
226787793,0.44,-0.00,0.03,-0.45,-0.18,9.91,0.44,-0.01,0.00,-0.28,-0.06,10.07,0.49,0.03,-0.04,-0.40,-0.24,9.72,0.41,-0.04,0.17,-0.11,-0.33,9.93,0.43,0.01,-0.11,1.69,-0.26,9.85,0.0000,0.0000,0.00
226793277,0.42,0.00,0.03,-0.45,-0.06,9.83,0.42,-0.01,0.00,-0.25,0.16,9.88,0.48,0.03,-0.04,-0.32,-0.14,9.92,0.40,-0.03,0.17,-0.04,-0.24,9.94,0.41,0.01,-0.11,1.71,-0.28,9.76,0.0000,0.0000,0.00
226799059,0.43,-0.00,0.03,-0.34,-0.09,9.95,0.42,-0.01,0.00,-0.15,0.20,9.98,0.48,0.03,-0.04,-0.30,-0.12,9.89,0.40,-0.03,0.18,0.03,-0.23,10.09,0.40,0.01,-0.11,1.78,-0.31,9.73,0.0000,0.0000,0.00
226804854,0.43,-0.00,0.03,-0.42,-0.02,9.97,0.42,-0.01,0.00,-0.18,0.16,10.01,0.48,0.03,-0.04,-0.32,-0.09,9.99,0.40,-0.03,0.18,-0.01,-0.31,9.88,0.42,0.02,-0.11,1.72,-0.28,9.82,0.0000,0.0000,0.00
226810710,0.43,-0.01,0.03,-0.47,-0.02,9.81,0.43,-0.02,0.00,-0.24,0.20,9.84,0.49,0.03,-0.04,-0.42,-0.06,9.86,0.40,-0.03,0.17,-0.12,-0.27,10.04,0.41,0.01,-0.11,1.65,-0.35,9.84,0.0000,0.0000,0.00
226818070,0.42,-0.00,0.03,-0.40,-0.05,9.77,0.41,-0.01,-0.00,-0.15,0.22,9.78,0.48,0.02,-0.04,-0.31,-0.06,9.87,0.40,-0.03,0.18,0.03,-0.08,9.98,0.41,0.01,-0.11,1.80,-0.18,9.93,0.0000,0.0000,0.00
226823929,0.42,-0.01,0.03,-0.44,0.07,9.83,0.41,-0.01,0.00,-0.22,0.31,9.90,0.47,0.03,-0.04,-0.41,0.02,9.72,0.39,-0.03,0.17,-0.07,-0.10,9.98,0.40,0.01,-0.11,1.76,-0.25,9.98,0.0000,0.0000,0.00
226829715,0.40,-0.00,0.03,-0.44,0.11,9.82,0.40,-0.01,-0.00,-0.19,0.29,9.74,0.46,0.03,-0.04,-0.40,0.02,9.69,0.38,-0.04,0.17,-0.06,-0.09,9.91,0.39,0.01,-0.11,1.65,-0.11,9.78,0.0000,0.0000,0.00
226835453,0.38,-0.00,0.03,-0.46,0.12,9.83,0.38,-0.01,0.00,-0.26,0.37,9.84,0.44,0.02,-0.04,-0.41,0.15,9.91,0.36,-0.04,0.17,-0.09,0.01,9.80,0.37,0.01,-0.10,1.65,-0.08,9.61,0.0000,0.0000,0.00
226841159,0.36,-0.00,0.02,-0.42,0.12,9.90,0.37,-0.02,0.00,-0.26,0.35,9.87,0.42,0.02,-0.04,-0.34,0.05,9.96,0.34,-0.04,0.18,-0.04,-0.07,9.88,0.35,0.01,-0.10,1.66,-0.09,9.48,0.0000,0.0000,0.00
226846909,0.35,-0.01,0.03,-0.35,0.22,9.73,0.35,-0.01,-0.00,-0.10,0.44,9.81,0.41,0.02,-0.04,-0.24,0.10,9.70,0.33,-0.03,0.17,0.06,-0.02,9.96,0.34,0.01,-0.10,1.79,-0.06,9.65,0.0000,0.0000,0.00
226852674,0.33,-0.00,0.03,-0.42,0.20,9.68,0.33,-0.01,0.00,-0.23,0.29,9.72,0.39,0.02,-0.04,-0.38,0.01,9.68,0.31,-0.03,0.17,-0.07,-0.04,9.75,0.32,0.00,-0.09,1.72,0.14,9.91,0.0000,0.0000,0.00
226858498,0.31,-0.00,0.03,-0.42,0.20,9.78,0.31,-0.01,0.00,-0.24,0.39,9.80,0.37,0.02,-0.04,-0.34,0.05,9.86,0.29,-0.04,0.18,-0.09,-0.02,9.97,0.30,-0.00,-0.09,1.73,-0.12,9.73,0.0000,0.0000,0.00
226864389,0.30,-0.00,0.02,-0.38,0.23,9.80,0.30,-0.01,-0.00,-0.16,0.43,9.90,0.36,0.02,-0.04,-0.31,0.16,9.80,0.27,-0.04,0.18,-0.01,0.08,9.79,0.29,0.00,-0.09,1.70,0.01,9.65,0.0000,0.0000,0.00
226870248,0.28,-0.00,0.02,-0.38,0.13,9.86,0.28,-0.01,0.00,-0.13,0.36,9.97,0.34,0.02,-0.04,-0.33,0.13,9.97,0.26,-0.04,0.18,-0.02,0.05,9.75,0.28,0.00,-0.08,1.71,0.03,9.80,0.0000,0.0000,0.00
226876066,0.28,-0.00,0.03,-0.48,0.24,9.82,0.28,-0.01,-0.00,-0.23,0.38,10.00,0.33,0.02,-0.04,-0.37,0.12,9.88,0.25,-0.04,0.18,-0.07,0.01,9.81,0.27,0.00,-0.08,1.66,0.03,9.83,0.0000,0.0000,0.00
226881834,0.28,-0.00,0.02,-0.41,0.22,9.77,0.28,-0.01,-0.00,-0.15,0.49,9.91,0.33,0.01,-0.04,-0.36,0.26,9.99,0.25,-0.04,0.18,-0.03,0.09,9.88,0.27,-0.00,-0.08,1.74,-0.11,9.68,0.0000,0.0000,0.00
226887327,0.27,-0.00,0.02,-0.43,0.21,10.13,0.27,-0.01,-0.00,-0.24,0.36,10.15,0.33,0.02,-0.04,-0.35,0.08,9.86,0.25,-0.04,0.18,-0.07,-0.03,9.73,0.26,0.00,-0.08,1.63,0.14,9.90,0.0000,0.0000,0.00
226892869,0.27,-0.00,0.02,-0.43,0.33,9.85,0.27,-0.01,0.00,-0.17,0.51,10.01,0.33,0.02,-0.04,-0.33,0.25,10.18,0.25,-0.04,0.17,0.00,0.07,9.91,0.26,-0.00,-0.08,1.75,-0.01,9.72,0.0000,0.0000,0.00
226898413,0.28,-0.00,0.02,-0.41,0.26,9.89,0.27,-0.01,0.00,-0.16,0.48,10.02,0.34,0.02,-0.05,-0.35,0.23,9.95,0.25,-0.04,0.18,-0.01,0.09,9.87,0.26,-0.00,-0.08,1.70,0.00,9.80,0.0000,0.0000,0.00
226905142,0.28,-0.00,0.02,-0.35,0.26,9.83,0.28,-0.01,-0.00,-0.15,0.51,10.07,0.34,0.02,-0.04,-0.26,0.22,10.01,0.25,-0.04,0.18,0.02,0.11,9.94,0.27,-0.01,-0.08,1.85,0.07,9.87,0.0000,0.0000,0.00
226910712,0.29,-0.00,0.02,-0.43,0.27,9.86,0.29,-0.01,-0.00,-0.22,0.49,10.01,0.35,0.02,-0.04,-0.36,0.18,9.86,0.27,-0.04,0.18,-0.09,0.10,9.86,0.28,-0.00,-0.09,1.70,-0.03,9.87,0.0000,0.0000,0.00
226916245,0.29,-0.00,0.03,-0.45,0.38,9.82,0.30,-0.01,-0.00,-0.19,0.58,9.87,0.36,0.01,-0.04,-0.36,0.28,9.90,0.27,-0.04,0.18,-0.07,0.14,10.07,0.29,-0.00,-0.09,1.72,0.14,9.76,0.0000,0.0000,0.00
226921706,0.30,-0.00,0.03,-0.40,0.32,9.94,0.30,-0.01,-0.00,-0.21,0.59,9.99,0.36,0.02,-0.04,-0.31,0.23,9.79,0.27,-0.04,0.18,-0.03,0.21,9.94,0.29,-0.00,-0.09,1.73,0.12,9.75,0.0000,0.0000,0.00
226927459,0.31,-0.01,0.02,-0.46,0.34,9.84,0.31,-0.01,0.00,-0.21,0.54,9.93,0.37,0.01,-0.04,-0.38,0.28,9.96,0.28,-0.04,0.18,-0.05,0.10,9.94,0.30,0.00,-0.09,1.71,-0.03,9.83,0.0000,0.0000,0.00
226933237,0.31,-0.00,0.03,-0.43,0.42,9.91,0.31,-0.01,-0.00,-0.23,0.59,9.93,0.38,0.01,-0.04,-0.39,0.32,9.83,0.29,-0.04,0.17,-0.03,0.27,9.94,0.31,-0.00,-0.09,1.70,0.19,9.89,0.0000,0.0000,0.00
226939067,0.31,-0.01,0.03,-0.46,0.43,9.76,0.31,-0.01,0.00,-0.25,0.65,9.93,0.37,0.02,-0.04,-0.37,0.38,9.89,0.28,-0.04,0.17,-0.04,0.28,9.81,0.30,-0.00,-0.09,1.70,0.11,9.87,0.0000,0.0000,0.00
226944880,0.31,-0.00,0.02,-0.40,0.40,9.89,0.31,-0.01,0.00,-0.21,0.65,9.85,0.37,0.01,-0.04,-0.37,0.39,10.05,0.28,-0.04,0.17,-0.05,0.24,9.95,0.29,-0.00,-0.09,1.70,0.21,9.73,0.0000,0.0000,0.00
226950726,0.31,0.00,0.02,-0.42,0.43,9.77,0.31,-0.01,0.00,-0.21,0.68,9.83,0.37,0.02,-0.04,-0.37,0.40,9.91,0.28,-0.04,0.17,-0.02,0.25,9.95,0.30,-0.00,-0.09,1.70,0.14,9.69,0.0000,0.0000,0.00
226956583,0.30,-0.00,0.02,-0.39,0.48,9.79,0.31,-0.01,0.00,-0.18,0.66,9.85,0.37,0.02,-0.04,-0.35,0.37,9.65,0.28,-0.04,0.18,-0.05,0.25,9.88,0.29,-0.00,-0.09,1.68,0.23,9.72,0.0000,0.0000,0.00
226962426,0.30,0.00,0.02,-0.43,0.48,9.85,0.30,-0.01,-0.00,-0.22,0.69,9.75,0.36,0.02,-0.04,-0.39,0.44,9.86,0.28,-0.04,0.17,-0.09,0.32,9.89,0.29,-0.00,-0.09,1.67,0.17,9.70,0.0000,0.0000,0.00
226968207,0.29,-0.00,0.02,-0.42,0.58,9.83,0.30,-0.01,0.00,-0.22,0.75,9.75,0.36,0.02,-0.04,-0.40,0.42,9.86,0.27,-0.04,0.18,-0.05,0.27,9.84,0.29,0.00,-0.09,1.70,0.26,9.69,0.0000,0.0000,0.00
226973932,0.29,-0.00,0.02,-0.39,0.52,9.75,0.29,-0.01,-0.00,-0.20,0.73,9.86,0.35,0.02,-0.04,-0.33,0.53,9.75,0.27,-0.04,0.17,-0.06,0.34,9.90,0.28,-0.00,-0.09,1.74,0.28,9.67,0.0000,0.0000,0.00
226979643,0.28,-0.00,0.03,-0.43,0.47,9.72,0.28,-0.01,-0.00,-0.21,0.74,9.86,0.34,0.02,-0.05,-0.35,0.48,9.81,0.26,-0.03,0.17,-0.02,0.36,9.88,0.27,-0.00,-0.08,1.71,0.20,9.72,0.0000,0.0000,0.00
226985457,0.28,0.00,0.02,-0.44,0.56,9.85,0.28,-0.01,0.00,-0.16,0.77,9.77,0.34,0.02,-0.04,-0.33,0.46,9.77,0.26,-0.04,0.17,-0.10,0.35,9.94,0.27,0.00,-0.09,1.70,0.31,9.78,0.0000,0.0000,0.00
226991294,0.28,0.00,0.03,-0.43,0.57,9.83,0.28,-0.01,-0.00,-0.20,0.76,9.89,0.34,0.02,-0.04,-0.38,0.51,9.88,0.25,-0.04,0.17,-0.01,0.36,9.91,0.27,0.01,-0.09,1.67,0.33,9.80,0.0000,0.0000,0.00
226998809,0.27,-0.00,0.02,-0.40,0.58,9.85,0.28,-0.01,-0.00,-0.21,0.80,9.85,0.33,0.02,-0.04,-0.38,0.54,9.95,0.25,-0.03,0.17,-0.02,0.43,10.03,0.26,0.01,-0.08,1.76,0.41,9.78,0.0000,0.0000,0.00
227004686,0.28,-0.00,0.02,-0.43,0.55,9.85,0.28,-0.01,-0.00,-0.20,0.73,9.83,0.34,0.02,-0.04,-0.40,0.51,9.82,0.26,-0.04,0.18,-0.06,0.38,9.97,0.27,-0.00,-0.08,1.68,0.21,9.98,0.0000,0.0000,0.00
227010546,0.29,-0.00,0.02,-0.40,0.61,9.89,0.29,-0.01,0.00,-0.12,0.81,9.90,0.35,0.02,-0.05,-0.36,0.58,9.86,0.27,-0.04,0.17,-0.01,0.45,9.94,0.29,-0.01,-0.09,1.71,0.30,9.80,0.0000,0.0000,0.00
227016077,0.28,0.00,0.02,-0.37,0.68,9.76,0.28,-0.01,-0.00,-0.16,0.91,9.72,0.34,0.02,-0.05,-0.34,0.59,9.79,0.26,-0.04,0.18,0.01,0.53,9.89,0.27,-0.01,-0.08,1.69,0.53,9.66,0.0000,0.0000,0.00
227021595,0.27,0.00,0.02,-0.42,0.66,9.81,0.27,-0.01,-0.00,-0.18,0.90,9.74,0.33,0.02,-0.04,-0.36,0.61,9.73,0.24,-0.04,0.17,-0.03,0.49,9.78,0.26,-0.01,-0.08,1.70,0.37,9.55,0.0000,0.0000,0.00
227033019,0.25,0.00,0.02,-0.53,0.59,9.82,0.26,-0.01,-0.00,-0.29,0.64,9.70,0.32,0.02,-0.04,-0.48,0.41,9.70,0.24,-0.03,0.18,-0.24,0.51,9.76,0.25,0.00,-0.08,1.45,0.62,9.50,0.0000,0.0000,0.00
227038563,0.24,0.00,0.02,-0.36,0.69,9.66,0.24,-0.00,0.00,-0.17,0.94,9.87,0.30,0.02,-0.04,-0.29,0.68,9.82,0.21,-0.03,0.18,0.02,0.51,9.58,0.22,0.00,-0.07,1.76,0.45,9.67,0.0000,0.0000,0.00
227044145,0.23,0.00,0.02,-0.43,0.70,9.90,0.23,-0.01,-0.00,-0.17,0.90,9.84,0.29,0.03,-0.04,-0.33,0.61,9.76,0.21,-0.03,0.17,-0.05,0.52,9.84,0.22,0.01,-0.07,1.66,0.38,9.70,0.0000,0.0000,0.00
227049697,0.22,0.00,0.02,-0.41,0.79,9.66,0.22,-0.00,-0.00,-0.17,0.98,9.70,0.28,0.02,-0.04,-0.34,0.72,9.72,0.20,-0.03,0.18,-0.02,0.58,9.71,0.21,0.01,-0.07,1.71,0.52,9.74,0.0000,0.0000,0.00
227055563,0.21,0.00,0.02,-0.40,0.81,9.75,0.21,-0.01,-0.00,-0.21,1.03,9.74,0.27,0.02,-0.04,-0.33,0.74,9.81,0.18,-0.03,0.18,-0.02,0.56,9.90,0.19,0.00,-0.07,1.70,0.47,9.74,0.0000,0.0000,0.00
227061316,0.20,0.00,0.02,-0.41,0.76,9.74,0.20,-0.01,0.00,-0.18,1.00,9.76,0.26,0.02,-0.04,-0.33,0.67,9.76,0.17,-0.03,0.18,0.02,0.59,9.91,0.19,0.00,-0.07,1.73,0.50,9.78,0.0000,0.0000,0.00
227067068,0.19,0.00,0.02,-0.38,0.77,9.70,0.19,-0.01,-0.00,-0.18,0.97,9.74,0.25,0.02,-0.04,-0.31,0.73,9.80,0.16,-0.03,0.18,-0.01,0.62,9.85,0.18,0.00,-0.06,1.69,0.54,9.72,0.0000,0.0000,0.00
227072865,0.18,0.00,0.02,-0.43,0.80,9.87,0.18,-0.01,0.00,-0.15,1.01,9.82,0.24,0.02,-0.04,-0.34,0.73,9.76,0.16,-0.03,0.17,-0.02,0.58,9.93,0.17,0.00,-0.06,1.69,0.52,9.73,0.0000,0.0000,0.00
227078695,0.17,0.00,0.02,-0.39,0.82,9.72,0.18,-0.01,-0.00,-0.19,1.02,9.78,0.23,0.02,-0.04,-0.32,0.74,9.76,0.15,-0.03,0.18,-0.01,0.65,9.86,0.17,-0.00,-0.06,1.70,0.54,9.70,0.0000,0.0000,0.00
227084521,0.16,0.00,0.02,-0.42,0.81,9.75,0.16,-0.00,0.00,-0.18,1.01,9.75,0.22,0.02,-0.05,-0.36,0.76,9.76,0.14,-0.03,0.18,-0.02,0.65,9.73,0.15,-0.00,-0.06,1.68,0.62,9.67,0.0000,0.0000,0.00
227090409,0.15,0.00,0.02,-0.39,0.86,9.75,0.16,-0.01,-0.00,-0.18,1.03,9.81,0.21,0.02,-0.04,-0.33,0.74,9.76,0.13,-0.03,0.18,0.01,0.62,9.87,0.15,0.00,-0.06,1.73,0.56,9.65,0.0000,0.0000,0.00
227096272,0.15,0.00,0.02,-0.38,0.85,9.78,0.15,-0.01,-0.00,-0.17,1.03,9.79,0.21,0.02,-0.04,-0.38,0.80,9.80,0.13,-0.03,0.17,-0.01,0.65,9.81,0.14,0.00,-0.06,1.70,0.59,9.56,0.0000,0.0000,0.00
227102105,0.14,0.00,0.02,-0.43,0.85,9.74,0.15,-0.01,0.00,-0.20,1.05,9.77,0.20,0.02,-0.05,-0.32,0.77,9.79,0.12,-0.03,0.18,-0.01,0.67,9.81,0.13,0.00,-0.05,1.71,0.58,9.71,0.0000,0.0000,0.00
227107798,0.14,0.00,0.02,-0.39,0.82,9.73,0.14,-0.00,-0.00,-0.20,1.03,9.79,0.20,0.02,-0.04,-0.33,0.77,9.79,0.12,-0.03,0.18,-0.03,0.64,9.84,0.13,0.00,-0.05,1.72,0.58,9.69,0.0000,0.0000,0.00
227113488,0.13,0.00,0.02,-0.44,0.89,9.73,0.13,-0.00,-0.00,-0.21,1.07,9.84,0.19,0.02,-0.05,-0.32,0.82,9.78,0.11,-0.03,0.18,0.00,0.69,9.89,0.13,0.00,-0.05,1.69,0.59,9.73,0.0000,0.0000,0.00
227119290,0.12,0.00,0.02,-0.45,0.85,9.73,0.13,-0.01,0.00,-0.24,1.05,9.66,0.19,0.02,-0.05,-0.39,0.78,9.71,0.10,-0.03,0.18,-0.11,0.67,9.90,0.12,-0.00,-0.05,1.71,0.62,9.79,0.0000,0.0000,0.00
227125116,0.11,0.00,0.02,-0.40,0.88,9.69,0.12,-0.01,0.00,-0.19,1.11,9.74,0.18,0.02,-0.05,-0.39,0.81,9.79,0.10,-0.03,0.18,-0.06,0.71,9.91,0.12,-0.00,-0.05,1.71,0.60,9.75,0.0000,0.0000,0.00
227130964,0.11,0.00,0.02,-0.39,0.88,9.72,0.11,-0.00,-0.00,-0.20,1.06,9.75,0.17,0.02,-0.04,-0.33,0.82,9.70,0.09,-0.03,0.18,-0.02,0.71,9.80,0.10,-0.00,-0.05,1.70,0.66,9.70,0.0000,0.0000,0.00
227136867,0.09,0.00,0.02,-0.41,0.88,9.73,0.10,-0.00,-0.00,-0.21,1.09,9.80,0.16,0.02,-0.04,-0.34,0.84,9.73,0.08,-0.03,0.18,-0.03,0.72,9.79,0.09,-0.00,-0.05,1.72,0.63,9.70,0.0000,0.0000,0.00
227142410,0.08,0.00,0.02,-0.41,0.92,9.73,0.09,-0.01,-0.00,-0.21,1.05,9.77,0.15,0.02,-0.04,-0.35,0.77,9.69,0.07,-0.03,0.18,-0.03,0.72,9.77,0.08,0.00,-0.05,1.67,0.64,9.56,0.0000,0.0000,0.00
227148009,0.07,0.00,0.02,-0.39,0.90,9.72,0.08,-0.01,-0.00,-0.19,1.09,9.69,0.14,0.02,-0.05,-0.33,0.85,9.71,0.06,-0.03,0.18,-0.03,0.74,9.75,0.07,0.00,-0.04,1.68,0.65,9.61,0.0000,0.0000,0.00
227153489,0.06,0.00,0.02,-0.37,0.94,9.75,0.07,-0.00,-0.00,-0.18,1.12,9.78,0.13,0.02,-0.05,-0.36,0.87,9.74,0.04,-0.03,0.18,0.00,0.70,9.81,0.06,0.00,-0.04,1.66,0.65,9.60,0.0000,0.0000,0.00
227160112,0.06,0.00,0.02,-0.43,0.88,9.86,0.06,-0.01,0.00,-0.14,1.07,9.84,0.12,0.02,-0.04,-0.32,0.80,9.82,0.04,-0.02,0.18,-0.01,0.67,9.84,0.06,0.01,-0.04,1.70,0.62,9.69,0.0000,0.0000,0.00
227165639,0.06,0.00,0.02,-0.40,0.90,9.79,0.07,-0.01,0.00,-0.19,1.14,9.80,0.12,0.02,-0.05,-0.37,0.84,9.83,0.04,-0.03,0.18,-0.05,0.72,9.93,0.06,0.01,-0.04,1.70,0.61,9.78,0.0000,0.0000,0.00
227171183,0.06,0.00,0.02,-0.39,0.88,9.78,0.06,-0.00,-0.00,-0.19,1.13,9.77,0.12,0.02,-0.04,-0.35,0.82,9.77,0.04,-0.03,0.18,-0.06,0.72,9.93,0.06,0.00,-0.04,1.74,0.63,9.84,0.0000,0.0000,0.00
227178411,0.06,0.00,0.02,-0.44,0.90,9.84,0.06,-0.00,-0.00,-0.17,1.10,9.86,0.12,0.02,-0.04,-0.35,0.83,9.83,0.04,-0.03,0.18,-0.04,0.69,9.95,0.06,0.00,-0.04,1.70,0.63,9.84,0.0000,0.0000,0.00
227184297,0.06,0.00,0.02,-0.42,0.89,9.78,0.07,-0.01,0.00,-0.17,1.14,9.81,0.13,0.02,-0.05,-0.35,0.82,9.76,0.04,-0.03,0.18,0.00,0.72,9.89,0.06,-0.00,-0.04,1.74,0.65,9.79,0.0000,0.0000,0.00
227190169,0.06,0.00,0.02,-0.44,0.89,9.85,0.07,-0.01,0.00,-0.17,1.13,9.84,0.13,0.02,-0.05,-0.35,0.84,9.82,0.04,-0.03,0.18,-0.02,0.73,9.86,0.06,-0.00,-0.04,1.73,0.66,9.70,0.0000,0.0000,0.00
227195944,0.06,0.00,0.02,-0.40,0.93,9.79,0.07,-0.01,0.00,-0.16,1.10,9.84,0.13,0.02,-0.05,-0.33,0.82,9.85,0.04,-0.03,0.18,0.00,0.69,9.88,0.06,-0.00,-0.04,1.70,0.65,9.66,0.0000,0.0000,0.00
227201722,0.06,0.00,0.02,-0.42,0.94,9.75,0.07,-0.01,0.00,-0.16,1.15,9.74,0.13,0.02,-0.05,-0.37,0.82,9.76,0.04,-0.03,0.18,-0.01,0.74,9.85,0.06,0.00,-0.04,1.69,0.64,9.66,0.0000,0.0000,0.00
227207476,0.06,0.00,0.02,-0.40,0.91,9.80,0.07,-0.01,0.00,-0.19,1.15,9.74,0.13,0.02,-0.05,-0.32,0.83,9.74,0.04,-0.03,0.18,-0.01,0.72,9.91,0.06,0.00,-0.04,1.72,0.62,9.74,0.0000,0.0000,0.00
227213295,0.07,0.00,0.02,-0.38,0.93,9.82,0.07,-0.01,0.00,-0.20,1.09,9.81,0.13,0.02,-0.05,-0.34,0.85,9.86,0.05,-0.03,0.18,-0.01,0.72,9.89,0.06,0.00,-0.04,1.69,0.63,9.77,0.0000,0.0000,0.00
227219093,0.07,0.00,0.02,-0.43,0.95,9.84,0.07,-0.01,0.00,-0.15,1.15,9.82,0.13,0.02,-0.05,-0.37,0.86,9.84,0.05,-0.03,0.18,0.00,0.74,9.93,0.07,0.00,-0.04,1.71,0.62,9.84,3938.4263,10552.3623,0.11
227224944,0.07,0.00,0.02,-0.41,0.95,9.77,0.07,-0.00,-0.00,-0.19,1.17,9.79,0.13,0.02,-0.04,-0.32,0.86,9.82,0.05,-0.03,0.18,-0.03,0.74,9.89,0.07,-0.00,-0.04,1.72,0.65,9.80,3938.4263,10552.3623,0.11
227230797,0.07,0.00,0.02,-0.42,0.94,9.76,0.07,-0.01,-0.00,-0.22,1.17,9.82,0.13,0.02,-0.05,-0.33,0.89,9.78,0.05,-0.03,0.18,-0.03,0.77,9.88,0.07,-0.00,-0.04,1.70,0.69,9.73,3938.4263,10552.3623,0.11
227236640,0.06,0.00,0.02,-0.39,0.98,9.83,0.07,-0.01,0.00,-0.15,1.17,9.83,0.13,0.02,-0.05,-0.37,0.92,9.77,0.05,-0.03,0.18,-0.03,0.74,9.83,0.06,-0.00,-0.04,1.68,0.71,9.75,3938.4263,10552.3623,0.11
227242408,0.06,0.00,0.02,-0.42,0.96,9.74,0.06,-0.01,-0.00,-0.21,1.15,9.76,0.12,0.02,-0.05,-0.34,0.90,9.77,0.04,-0.03,0.18,0.00,0.79,9.86,0.06,-0.00,-0.04,1.68,0.67,9.56,3938.4263,10552.3623,0.11
227248205,0.05,0.00,0.02,-0.41,0.96,9.73,0.06,-0.00,0.00,-0.20,1.15,9.78,0.12,0.02,-0.05,-0.38,0.88,9.79,0.03,-0.03,0.18,-0.01,0.77,9.81,0.05,-0.00,-0.04,1.71,0.72,9.61,3938.4263,10552.3623,0.11
227253980,0.05,0.01,0.02,-0.36,0.98,9.76,0.06,-0.01,0.00,-0.15,1.17,9.75,0.12,0.02,-0.05,-0.39,0.88,9.79,0.03,-0.02,0.18,-0.02,0.79,9.81,0.05,0.00,-0.04,1.69,0.68,9.60,3938.4263,10552.3623,0.11
227259805,0.04,0.00,0.02,-0.39,0.96,9.73,0.05,-0.00,0.00,-0.20,1.18,9.72,0.11,0.02,-0.04,-0.37,0.89,9.74,0.03,-0.03,0.18,-0.02,0.81,9.77,0.04,0.00,-0.04,1.68,0.73,9.68,3938.4263,10552.3623,0.11
227265620,0.03,0.00,0.02,-0.42,0.99,9.68,0.04,-0.01,0.00,-0.18,1.15,9.77,0.10,0.02,-0.04,-0.32,0.90,9.77,0.02,-0.03,0.18,-0.02,0.81,9.84,0.03,0.00,-0.04,1.72,0.70,9.73,3938.4263,10552.3623,0.11
227271206,0.03,0.00,0.02,-0.40,0.95,9.77,0.03,-0.00,0.00,-0.20,1.18,9.78,0.09,0.02,-0.04,-0.33,0.89,9.75,0.01,-0.03,0.18,-0.03,0.80,9.85,0.03,0.00,-0.03,1.71,0.74,9.71,3938.4263,10552.3623,0.11
227276777,0.02,0.00,0.02,-0.43,0.96,9.73,0.02,-0.00,-0.00,-0.20,1.21,9.76,0.08,0.02,-0.05,-0.33,0.88,9.76,0.00,-0.03,0.18,-0.04,0.81,9.82,0.02,-0.00,-0.03,1.69,0.70,9.70,3938.4263,10552.3623,0.11
227283512,0.01,0.00,0.02,-0.38,1.03,9.74,0.02,-0.01,0.00,-0.19,1.16,9.77,0.08,0.02,-0.05,-0.35,0.91,9.80,-0.00,-0.03,0.18,-0.04,0.80,9.82,0.01,-0.00,-0.03,1.73,0.70,9.64,3938.4263,10552.3623,0.11
227288998,0.01,0.00,0.02,-0.39,0.97,9.75,0.01,-0.00,-0.00,-0.19,1.18,9.76,0.08,0.02,-0.05,-0.35,0.91,9.75,-0.01,-0.03,0.18,-0.01,0.83,9.81,0.01,0.00,-0.03,1.71,0.72,9.65,3938.4263,10552.3623,0.11
227294435,0.01,0.00,0.02,-0.42,1.00,9.77,0.01,-0.01,0.00,-0.18,1.15,9.77,0.07,0.02,-0.05,-0.36,0.92,9.79,-0.02,-0.03,0.18,-0.02,0.78,9.81,0.00,0.00,-0.03,1.68,0.76,9.67,3938.4263,10552.3623,0.11
227299888,0.00,0.00,0.02,-0.43,0.98,9.74,0.01,-0.00,-0.00,-0.21,1.18,9.79,0.07,0.02,-0.05,-0.33,0.87,9.79,-0.02,-0.02,0.18,-0.01,0.79,9.85,0.00,0.00,-0.03,1.71,0.70,9.73,3938.4263,10552.3623,0.11
227305758,-0.00,0.00,0.02,-0.37,1.01,9.83,0.01,-0.01,-0.00,-0.16,1.21,9.80,0.06,0.02,-0.05,-0.36,0.95,9.77,-0.02,-0.03,0.18,-0.01,0.80,9.81,-0.00,0.00,-0.03,1.73,0.73,9.78,3938.4263,10552.3623,0.11
227311657,-0.01,0.00,0.02,-0.45,0.99,9.73,0.00,-0.01,0.00,-0.19,1.15,9.80,0.06,0.02,-0.05,-0.36,0.91,9.82,-0.02,-0.03,0.18,-0.01,0.80,9.82,-0.00,0.00,-0.02,1.72,0.71,9.73,3938.4263,10552.3623,0.11
227317528,-0.02,0.00,0.02,-0.41,1.01,9.74,-0.01,-0.01,0.00,-0.23,1.21,9.76,0.05,0.02,-0.05,-0.35,0.89,9.76,-0.03,-0.03,0.18,-0.02,0.84,9.84,-0.01,-0.00,-0.02,1.71,0.73,9.74,3938.4263,10552.3623,0.11
227323407,-0.02,0.00,0.02,-0.41,0.96,9.74,-0.01,-0.01,0.00,-0.20,1.20,9.73,0.05,0.02,-0.05,-0.36,0.93,9.75,-0.04,-0.03,0.18,0.00,0.79,9.83,-0.02,-0.00,-0.02,1.70,0.76,9.68,3938.4263,10552.3623,0.11
227329251,-0.03,0.00,0.02,-0.42,0.93,9.73,-0.02,-0.01,-0.00,-0.14,1.08,9.73,0.04,0.02,-0.05,-0.29,0.94,9.70,-0.04,-0.03,0.18,0.10,0.84,9.79,-0.03,-0.00,-0.02,1.92,0.78,9.54,3938.4263,10552.3623,0.11
227335019,-0.04,0.00,0.02,-0.46,1.00,9.79,-0.03,-0.00,-0.00,-0.30,1.15,9.81,0.03,0.02,-0.05,-0.39,0.89,9.84,-0.05,-0.02,0.18,-0.04,0.80,9.84,-0.03,-0.00,-0.02,1.64,0.70,9.54,3938.4263,10552.3623,0.11
227340726,-0.03,0.00,0.02,-0.40,0.96,9.85,-0.03,-0.00,0.00,-0.18,1.19,9.83,0.03,0.02,-0.05,-0.34,0.88,9.82,-0.05,-0.02,0.18,-0.02,0.76,9.85,-0.03,0.00,-0.02,1.69,0.62,9.62,3938.4263,10552.3623,0.11
227346456,-0.03,0.00,0.01,-0.40,0.96,9.84,-0.03,-0.00,0.00,-0.18,1.19,9.79,0.04,0.02,-0.05,-0.35,0.92,9.82,-0.05,-0.02,0.18,-0.05,0.78,9.90,-0.03,0.01,-0.02,1.74,0.65,9.74,3938.4263,10552.3623,0.11
227352280,-0.03,0.00,0.02,-0.38,0.98,9.78,-0.02,-0.01,0.00,-0.17,1.16,9.82,0.04,0.02,-0.05,-0.36,0.91,9.82,-0.05,-0.02,0.18,-0.02,0.76,9.95,-0.03,0.00,-0.02,1.75,0.72,9.87,3938.4263,10552.3623,0.11
227359807,-0.03,0.00,0.02,-0.40,0.98,9.78,-0.02,-0.01,0.00,-0.16,1.15,9.82,0.04,0.02,-0.05,-0.35,0.86,9.85,-0.05,-0.03,0.18,0.00,0.78,9.95,-0.02,-0.00,-0.02,1.73,0.65,9.89,3938.4263,10552.3623,0.11
227365693,-0.03,0.00,0.02,-0.45,0.98,9.80,-0.02,-0.00,0.00,-0.18,1.17,9.84,0.04,0.02,-0.05,-0.36,0.86,9.85,-0.04,-0.03,0.18,-0.01,0.77,9.91,-0.02,-0.00,-0.02,1.71,0.69,9.83,3938.4263,10552.3623,0.11
227371559,-0.03,0.00,0.02,-0.44,0.97,9.78,-0.02,-0.01,0.00,-0.20,1.18,9.83,0.04,0.02,-0.05,-0.38,0.88,9.82,-0.04,-0.03,0.18,0.00,0.80,9.91,-0.02,-0.01,-0.02,1.72,0.66,9.72,3938.4263,10552.3623,0.11
227377355,-0.03,0.00,0.02,-0.42,0.98,9.82,-0.02,-0.01,0.00,-0.25,1.17,9.82,0.04,0.02,-0.05,-0.34,0.90,9.78,-0.04,-0.03,0.18,-0.01,0.77,9.84,-0.02,-0.00,-0.02,1.68,0.72,9.59,3938.4263,10552.3623,0.11
227383126,-0.02,0.00,0.02,-0.36,0.95,9.83,-0.02,-0.00,0.00,-0.20,1.15,9.83,0.04,0.02,-0.05,-0.35,0.87,9.83,-0.04,-0.02,0.18,-0.03,0.78,9.80,-0.02,-0.00,-0.02,1.69,0.66,9.65,3938.4263,10552.3623,0.11
227388641,-0.02,0.00,0.02,-0.41,0.93,9.83,-0.01,-0.00,0.00,-0.16,1.17,9.82,0.05,0.02,-0.05,-0.39,0.86,9.85,-0.04,-0.02,0.18,0.00,0.77,9.87,-0.02,0.01,-0.02,1.71,0.67,9.73,3938.4263,10552.3623,0.11
227394171,-0.01,0.00,0.02,-0.41,0.96,9.80,-0.01,-0.00,0.00,-0.21,1.15,9.80,0.05,0.02,-0.05,-0.35,0.89,9.86,-0.03,-0.02,0.18,-0.01,0.75,9.93,-0.02,0.01,-0.02,1.72,0.66,9.78,3938.4263,10552.3623,0.11
227399702,-0.01,0.00,0.02,-0.42,0.97,9.78,-0.01,-0.00,0.00,-0.16,1.16,9.85,0.05,0.02,-0.05,-0.35,0.89,9.86,-0.03,-0.02,0.18,-0.05,0.76,9.94,-0.01,0.00,-0.02,1.73,0.66,9.92,3938.4263,10552.3623,0.11
227406416,-0.01,0.00,0.02,-0.43,1.00,9.78,-0.01,-0.01,0.00,-0.20,1.17,9.82,0.06,0.02,-0.05,-0.31,0.88,9.80,-0.03,-0.03,0.18,-0.01,0.76,9.94,-0.01,-0.00,-0.03,1.74,0.69,9.91,3938.4263,10552.3623,0.11
227411971,-0.02,0.00,0.02,-0.39,1.04,9.72,-0.00,-0.01,0.00,-0.14,1.17,9.76,0.05,0.02,-0.05,-0.34,0.89,9.79,-0.03,-0.03,0.18,-0.01,0.77,9.82,-0.01,-0.01,-0.02,1.73,0.70,9.76,3938.4263,10552.3623,0.11
227417528,-0.02,0.00,0.02,-0.32,0.89,9.63,-0.01,-0.01,0.01,-0.06,1.11,9.68,0.05,0.02,-0.05,-0.27,0.87,9.72,-0.03,-0.03,0.18,0.08,0.77,9.86,-0.01,-0.00,-0.02,1.80,0.71,9.56,3938.4263,10552.3623,0.11
227422983,-0.02,0.00,0.02,-0.40,0.95,9.75,-0.02,-0.00,0.00,-0.20,1.10,9.73,0.05,0.02,-0.05,-0.32,0.86,9.68,-0.04,-0.03,0.18,-0.03,0.75,9.71,-0.02,-0.00,-0.02,1.74,0.69,9.67,3938.4263,10552.3623,0.11
227428761,-0.03,0.00,0.02,-0.41,0.96,9.73,-0.02,-0.00,-0.00,-0.21,1.13,9.79,0.04,0.02,-0.05,-0.34,0.86,9.71,-0.04,-0.02,0.18,-0.02,0.80,9.74,-0.03,0.00,-0.02,1.68,0.68,9.54,3938.4263,10552.3623,0.11
227434531,-0.03,0.00,0.02,-0.36,0.96,9.77,-0.03,-0.00,0.00,-0.19,1.17,9.79,0.03,0.02,-0.05,-0.34,0.90,9.82,-0.05,-0.02,0.18,-0.02,0.75,9.76,-0.03,0.00,-0.02,1.74,0.66,9.60,3938.4263,10552.3623,0.11
227440342,-0.03,0.00,0.02,-0.40,0.95,9.71,-0.03,-0.01,0.00,-0.21,1.17,9.80,0.03,0.02,-0.05,-0.37,0.85,9.81,-0.05,-0.02,0.18,-0.03,0.76,9.84,-0.03,0.00,-0.02,1.69,0.66,9.74,3938.4263,10552.3623,0.11
227446153,-0.04,0.00,0.02,-0.39,0.97,9.78,-0.03,-0.00,0.00,-0.16,1.16,9.78,0.03,0.02,-0.05,-0.34,0.92,9.78,-0.05,-0.02,0.18,-0.01,0.77,9.92,-0.04,0.00,-0.02,1.68,0.64,9.81,3938.4263,10552.3623,0.11
227451989,-0.04,0.00,0.02,-0.40,0.97,9.80,-0.03,-0.00,0.00,-0.17,1.16,9.80,0.03,0.02,-0.05,-0.31,0.87,9.82,-0.05,-0.03,0.18,-0.01,0.75,9.94,-0.04,-0.00,-0.02,1.72,0.65,9.89,3938.4263,10552.3623,0.11
227457856,-0.04,0.00,0.02,-0.43,0.95,9.83,-0.03,-0.01,0.00,-0.19,1.17,9.83,0.03,0.02,-0.05,-0.33,0.90,9.78,-0.05,-0.03,0.18,-0.01,0.76,9.90,-0.03,-0.00,-0.02,1.70,0.70,9.78,3938.4263,10552.3623,0.11
227463712,-0.04,0.00,0.02,-0.41,0.97,9.79,-0.03,-0.00,0.00,-0.19,1.15,9.79,0.03,0.02,-0.05,-0.37,0.89,9.80,-0.05,-0.03,0.18,-0.02,0.75,9.86,-0.03,-0.01,-0.02,1.73,0.65,9.73,3938.4263,10552.3623,0.11
227469506,-0.04,0.00,0.02,-0.39,0.93,9.83,-0.03,-0.00,0.00,-0.20,1.13,9.84,0.03,0.02,-0.05,-0.32,0.87,9.81,-0.05,-0.03,0.18,-0.01,0.77,9.85,-0.04,-0.00,-0.02,1.70,0.63,9.65,3938.4263,10552.3623,0.11
227475192,-0.04,0.00,0.02,-0.39,0.95,9.77,-0.03,-0.00,0.00,-0.20,1.17,9.82,0.03,0.02,-0.05,-0.35,0.88,9.81,-0.05,-0.03,0.18,0.01,0.78,9.87,-0.03,-0.00,-0.02,1.70,0.65,9.65,3938.4263,10552.3623,0.11
227480875,-0.04,0.00,0.01,-0.41,0.92,9.77,-0.03,-0.00,0.00,-0.15,1.17,9.78,0.03,0.02,-0.05,-0.34,0.89,9.77,-0.06,-0.02,0.18,-0.01,0.76,9.81,-0.04,0.00,-0.02,1.71,0.70,9.72,3938.4263,10552.3623,0.11
227486689,-0.04,0.00,0.02,-0.43,0.97,9.76,-0.04,-0.00,0.00,-0.18,1.13,9.81,0.03,0.02,-0.05,-0.31,0.85,9.78,-0.06,-0.02,0.18,-0.01,0.72,9.88,-0.04,0.00,-0.02,1.75,0.65,9.73,3938.4263,10552.3623,0.11
227492549,-0.04,0.00,0.02,-0.40,0.93,9.76,-0.04,-0.00,0.00,-0.24,1.16,9.79,0.02,0.02,-0.05,-0.37,0.91,9.79,-0.06,-0.02,0.18,-0.07,0.73,9.86,-0.04,-0.00,-0.02,1.71,0.65,9.74,3938.4263,10552.3623,0.11
227498439,-0.05,0.00,0.02,-0.40,0.96,9.77,-0.04,-0.00,0.00,-0.18,1.15,9.75,0.02,0.02,-0.05,-0.34,0.88,9.75,-0.06,-0.03,0.18,-0.03,0.74,9.85,-0.04,-0.00,-0.02,1.70,0.64,9.73,3938.4263,10552.3623,0.11
227504307,-0.05,0.00,0.02,-0.39,0.94,9.70,-0.05,-0.00,-0.00,-0.18,1.14,9.75,0.01,0.02,-0.05,-0.37,0.89,9.81,-0.07,-0.03,0.18,-0.01,0.74,9.85,-0.05,-0.00,-0.02,1.71,0.67,9.70,3938.4263,10552.3623,0.11
227509853,-0.06,0.00,0.02,-0.43,0.93,9.75,-0.05,-0.01,0.00,-0.20,1.17,9.76,0.01,0.02,-0.05,-0.37,0.86,9.81,-0.07,-0.03,0.18,-0.01,0.80,9.80,-0.05,-0.00,-0.01,1.69,0.66,9.61,3938.4263,10552.3623,0.11
227515425,-0.06,0.00,0.02,-0.38,0.91,9.75,-0.06,-0.01,0.00,-0.19,1.15,9.69,0.01,0.02,-0.05,-0.32,0.84,9.76,-0.08,-0.03,0.18,-0.01,0.70,9.83,-0.06,-0.00,-0.01,1.69,0.63,9.57,3938.4263,10552.3623,0.11
227520942,-0.07,0.00,0.02,-0.40,0.95,9.72,-0.06,-0.00,0.00,-0.18,1.14,9.79,0.00,0.02,-0.05,-0.31,0.86,9.75,-0.08,-0.02,0.18,-0.03,0.72,9.79,-0.06,0.00,-0.01,1.76,0.69,9.69,3938.4263,10552.3623,0.11
227533971,-0.07,0.00,0.02,-0.42,0.89,9.84,-0.06,-0.00,0.00,-0.16,1.06,9.83,0.00,0.02,-0.04,-0.40,0.82,9.84,-0.08,-0.02,0.19,-0.02,0.70,9.93,-0.06,0.01,-0.01,1.73,0.63,9.81,3938.4263,10552.3623,0.11
227539522,-0.06,0.00,0.01,-0.39,0.90,9.83,-0.05,-0.00,0.00,-0.17,1.11,9.88,0.01,0.02,-0.05,-0.37,0.84,9.84,-0.08,-0.02,0.19,-0.01,0.67,9.87,-0.06,0.00,-0.02,1.74,0.61,9.85,3938.4263,10552.3623,0.11
227545085,-0.06,0.00,0.01,-0.42,0.89,9.75,-0.05,-0.01,0.00,-0.18,1.08,9.84,0.01,0.02,-0.05,-0.36,0.85,9.90,-0.07,-0.02,0.18,-0.03,0.71,9.95,-0.05,0.00,-0.02,1.77,0.60,9.92,3938.4263,10552.3623,0.11
227550951,-0.05,0.00,0.02,-0.41,0.92,9.81,-0.04,-0.00,0.00,-0.18,1.11,9.87,0.02,0.02,-0.05,-0.36,0.82,9.90,-0.07,-0.02,0.18,-0.03,0.70,9.90,-0.05,-0.00,-0.02,1.69,0.57,9.96,3938.4263,10552.3623,0.11
227556741,-0.05,0.00,0.02,-0.39,0.88,9.81,-0.04,-0.00,0.00,-0.16,1.14,9.85,0.02,0.02,-0.05,-0.34,0.85,9.84,-0.06,-0.03,0.18,-0.03,0.69,9.89,-0.04,-0.00,-0.02,1.72,0.58,9.80,3938.4263,10552.3623,0.11
227562453,-0.05,0.00,0.02,-0.42,0.91,9.77,-0.04,-0.00,0.00,-0.16,1.09,9.81,0.02,0.02,-0.05,-0.39,0.83,9.80,-0.06,-0.03,0.18,-0.02,0.73,9.86,-0.04,-0.00,-0.02,1.71,0.63,9.74,3938.4263,10552.3623,0.11
227568228,-0.05,0.00,0.02,-0.43,0.87,9.75,-0.04,-0.00,0.00,-0.22,1.09,9.74,0.02,0.02,-0.05,-0.36,0.81,9.79,-0.06,-0.03,0.18,-0.03,0.73,9.83,-0.05,-0.00,-0.02,1.66,0.66,9.66,3938.4263,10552.3623,0.11
227573984,-0.06,0.00,0.02,-0.43,0.92,9.69,-0.05,-0.00,0.00,-0.22,1.12,9.74,0.01,0.02,-0.05,-0.37,0.86,9.74,-0.07,-0.03,0.18,0.00,0.70,9.74,-0.05,-0.00,-0.02,1.70,0.65,9.57,3938.4263,10552.3623,0.11
227579807,-0.06,0.00,0.02,-0.38,0.94,9.71,-0.05,-0.00,0.00,-0.16,1.12,9.75,0.01,0.02,-0.05,-0.32,0.85,9.73,-0.08,-0.03,0.18,-0.02,0.71,9.76,-0.06,0.00,-0.02,1.71,0.63,9.58,3938.4263,10552.3623,0.11
227585634,-0.07,0.00,0.02,-0.39,0.93,9.73,-0.06,-0.00,0.00,-0.18,1.13,9.75,-0.00,0.02,-0.05,-0.37,0.82,9.72,-0.09,-0.02,0.18,-0.02,0.73,9.73,-0.07,-0.00,-0.01,1.71,0.69,9.61,3938.4263,10552.3623,0.11
227591483,-0.08,0.00,0.02,-0.41,0.88,9.75,-0.07,-0.00,0.00,-0.19,1.12,9.76,-0.01,0.02,-0.05,-0.34,0.83,9.76,-0.10,-0.02,0.18,0.02,0.74,9.82,-0.08,0.00,-0.01,1.67,0.64,9.63,3938.4263,10552.3623,0.11
227597317,-0.09,-0.00,0.01,-0.40,0.92,9.75,-0.08,-0.00,0.00,-0.17,1.10,9.78,-0.01,0.02,-0.05,-0.34,0.84,9.81,-0.10,-0.02,0.18,-0.01,0.72,9.89,-0.08,0.00,-0.01,1.72,0.62,9.78,3938.4263,10552.3623,0.11
227603154,-0.09,0.00,0.02,-0.39,0.89,9.75,-0.08,-0.00,0.00,-0.16,1.13,9.77,-0.02,0.02,-0.05,-0.35,0.83,9.72,-0.11,-0.02,0.18,-0.04,0.70,9.83,-0.09,-0.00,-0.01,1.74,0.63,9.71,3938.4263,10552.3623,0.11
227608934,-0.10,0.00,0.02,-0.39,0.93,9.72,-0.09,-0.00,0.00,-0.16,1.12,9.70,-0.03,0.02,-0.05,-0.35,0.85,9.74,-0.11,-0.02,0.18,-0.01,0.71,9.82,-0.09,0.00,-0.01,1.71,0.57,9.72,3938.4263,10552.3623,0.11
227614668,-0.10,0.00,0.02,-0.43,0.88,9.77,-0.10,-0.00,-0.00,-0.22,1.10,9.81,-0.03,0.02,-0.05,-0.30,0.80,9.81,-0.12,-0.02,0.18,-0.03,0.69,9.81,-0.10,-0.00,-0.01,1.74,0.57,9.72,3938.4263,10552.3623,0.11
227620398,-0.11,0.00,0.02,-0.40,0.90,9.75,-0.10,-0.00,0.00,-0.19,1.09,9.79,-0.03,0.02,-0.05,-0.36,0.80,9.78,-0.12,-0.02,0.18,0.00,0.66,9.80,-0.10,-0.00,-0.01,1.72,0.57,9.65,3938.4263,10552.3623,0.11
227626242,-0.11,0.00,0.01,-0.43,0.91,9.81,-0.10,-0.00,0.00,-0.20,1.04,9.81,-0.04,0.03,-0.05,-0.35,0.82,9.77,-0.12,-0.02,0.18,-0.03,0.69,9.81,-0.10,0.00,-0.00,1.68,0.60,9.70,3938.4263,10552.3623,0.11
227632134,-0.11,0.00,0.01,-0.42,0.84,9.85,-0.11,0.00,0.00,-0.20,1.03,9.86,-0.04,0.02,-0.05,-0.38,0.75,9.84,-0.13,-0.02,0.18,-0.02,0.66,9.85,-0.11,0.00,-0.01,1.69,0.57,9.70,3938.4263,10552.3623,0.11
227637713,-0.11,0.00,0.01,-0.42,0.86,9.79,-0.10,-0.00,0.00,-0.17,1.03,9.87,-0.04,0.02,-0.05,-0.34,0.79,9.86,-0.12,-0.02,0.18,-0.01,0.65,9.90,-0.10,0.01,-0.00,1.75,0.57,9.73,3938.4263,10552.3623,0.11
227643256,-0.10,0.00,0.02,-0.40,0.84,9.82,-0.10,-0.00,-0.00,-0.18,1.03,9.87,-0.04,0.02,-0.05,-0.33,0.74,9.89,-0.12,-0.02,0.18,-0.01,0.58,9.95,-0.10,0.01,-0.01,1.73,0.52,9.83,3938.4263,10552.3623,0.11
227649966,-0.10,0.00,0.01,-0.38,0.82,9.87,-0.09,-0.00,0.00,-0.20,1.03,9.88,-0.03,0.02,-0.05,-0.36,0.76,9.85,-0.11,-0.02,0.18,-0.01,0.62,9.96,-0.09,0.00,-0.01,1.70,0.54,9.82,3938.4263,10552.3623,0.11
227655453,-0.09,0.00,0.02,-0.40,0.82,9.90,-0.09,-0.00,-0.00,-0.17,1.01,9.89,-0.02,0.02,-0.05,-0.37,0.74,9.93,-0.11,-0.02,0.19,0.00,0.63,9.96,-0.09,0.00,-0.01,1.75,0.53,9.90,3938.4263,10552.3623,0.11
227660887,-0.08,0.00,0.02,-0.39,0.81,9.81,-0.08,-0.00,-0.00,-0.20,1.04,9.89,-0.02,0.02,-0.05,-0.34,0.75,9.88,-0.10,-0.02,0.18,-0.01,0.62,10.04,-0.08,-0.00,-0.01,1.74,0.50,9.92,3938.4263,10552.3623,0.11
227666350,-0.08,0.00,0.02,-0.38,0.80,9.84,-0.07,-0.00,0.00,-0.17,1.05,9.83,-0.01,0.02,-0.05,-0.32,0.74,9.90,-0.09,-0.03,0.19,-0.04,0.60,9.97,-0.07,-0.00,-0.01,1.74,0.53,9.85,3938.4263,10552.3623,0.11
227672207,-0.07,0.00,0.02,-0.42,0.80,9.85,-0.07,-0.00,0.00,-0.17,1.03,9.86,-0.00,0.02,-0.05,-0.35,0.72,9.88,-0.09,-0.02,0.18,-0.06,0.66,9.94,-0.07,-0.00,-0.01,1.72,0.53,9.77,3938.4263,10552.3623,0.11
227678093,-0.07,0.00,0.01,-0.42,0.80,9.85,-0.06,-0.01,0.00,-0.18,1.01,9.87,0.00,0.02,-0.05,-0.38,0.74,9.85,-0.08,-0.03,0.18,-0.02,0.61,9.95,-0.06,-0.00,-0.02,1.69,0.52,9.79,3938.4263,10552.3623,0.11
227683968,-0.06,0.00,0.02,-0.40,0.79,9.87,-0.05,-0.00,0.00,-0.21,1.03,9.84,0.01,0.02,-0.05,-0.38,0.74,9.82,-0.08,-0.03,0.18,-0.01,0.64,9.91,-0.06,0.00,-0.02,1.72,0.53,9.74,3938.4263,10552.3623,0.11
227689806,-0.06,0.00,0.02,-0.41,0.78,9.82,-0.05,-0.00,0.00,-0.22,1.03,9.87,0.01,0.02,-0.05,-0.34,0.72,9.85,-0.08,-0.02,0.18,-0.01,0.65,9.93,-0.05,-0.00,-0.02,1.75,0.51,9.77,3938.4263,10552.3623,0.11
227695550,-0.05,0.00,0.02,-0.41,0.78,9.82,-0.05,-0.00,-0.00,-0.14,0.99,9.86,0.01,0.02,-0.05,-0.37,0.70,9.83,-0.07,-0.02,0.18,-0.01,0.63,9.91,-0.05,0.00,-0.02,1.70,0.52,9.74,3938.4263,10552.3623,0.11
227701310,-0.05,0.00,0.02,-0.41,0.83,9.82,-0.05,-0.00,-0.00,-0.20,0.99,9.84,0.01,0.02,-0.05,-0.38,0.77,9.85,-0.07,-0.02,0.18,-0.01,0.62,9.92,-0.05,0.00,-0.02,1.70,0.52,9.76,3938.4263,10552.3623,0.11
227707063,-0.05,0.00,0.02,-0.37,0.82,9.79,-0.04,-0.00,0.00,-0.18,1.05,9.81,0.02,0.02,-0.05,-0.32,0.77,9.83,-0.07,-0.03,0.18,-0.02,0.63,9.91,-0.05,-0.00,-0.01,1.74,0.54,9.78,3938.4263,10552.3623,0.11
227712838,-0.05,0.00,0.02,-0.41,0.85,9.81,-0.04,-0.01,0.00,-0.20,1.01,9.83,0.02,0.02,-0.05,-0.35,0.74,9.82,-0.07,-0.02,0.18,-0.03,0.61,9.90,-0.05,-0.00,-0.02,1.68,0.58,9.77,3938.4263,10552.3623,0.11
227720272,-0.05,0.00,0.01,-0.43,0.80,9.81,-0.05,-0.00,0.00,-0.18,1.00,9.81,0.02,0.02,-0.05,-0.34,0.74,9.85,-0.07,-0.03,0.19,-0.03,0.60,9.87,-0.05,-0.00,-0.02,1.73,0.52,9.73,3938.4263,10552.3623,0.11
227726093,-0.05,0.00,0.02,-0.40,0.81,9.81,-0.05,-0.00,0.00,-0.20,1.00,9.82,0.02,0.02,-0.05,-0.37,0.73,9.84,-0.07,-0.02,0.18,0.00,0.61,9.89,-0.05,0.00,-0.02,1.71,0.53,9.70,3938.4263,10552.3623,0.11
227731978,-0.05,0.00,0.02,-0.39,0.78,9.81,-0.04,-0.00,0.00,-0.20,1.03,9.77,0.02,0.02,-0.05,-0.37,0.76,9.77,-0.07,-0.02,0.18,-0.03,0.64,9.89,-0.05,-0.00,-0.02,1.72,0.54,9.70,3938.4263,10552.3623,0.11
227737876,-0.05,0.00,0.02,-0.40,0.86,9.80,-0.04,-0.00,0.00,-0.22,1.02,9.80,0.02,0.02,-0.05,-0.36,0.77,9.82,-0.07,-0.02,0.19,-0.04,0.62,9.85,-0.05,0.00,-0.02,1.73,0.53,9.74,3938.4263,10552.3623,0.11
227743722,-0.05,0.00,0.02,-0.42,0.80,9.82,-0.04,-0.01,0.00,-0.15,1.04,9.85,0.02,0.02,-0.05,-0.37,0.74,9.83,-0.07,-0.02,0.18,-0.02,0.62,9.90,-0.05,0.00,-0.02,1.72,0.54,9.71,3938.4263,10552.3623,0.11
227749449,-0.05,0.00,0.01,-0.39,0.76,9.79,-0.04,-0.00,0.00,-0.19,0.98,9.83,0.02,0.02,-0.05,-0.33,0.73,9.84,-0.07,-0.03,0.18,-0.04,0.58,9.88,-0.05,0.00,-0.02,1.71,0.49,9.76,3938.4263,10552.3623,0.11
227754933,-0.05,0.00,0.02,-0.44,0.85,9.81,-0.05,-0.00,0.00,-0.14,1.02,9.82,0.01,0.02,-0.05,-0.36,0.73,9.84,-0.07,-0.02,0.18,-0.06,0.60,9.92,-0.05,0.00,-0.02,1.70,0.54,9.74,3938.4263,10552.3623,0.11
227760512,-0.05,0.00,0.01,-0.39,0.79,9.80,-0.04,-0.00,0.00,-0.16,1.00,9.83,0.01,0.02,-0.05,-0.38,0.72,9.81,-0.07,-0.03,0.18,-0.05,0.60,9.88,-0.05,-0.00,-0.02,1.74,0.51,9.74,3938.4263,10552.3623,0.11
227766114,-0.05,0.00,0.02,-0.44,0.81,9.79,-0.04,-0.00,-0.00,-0.16,0.99,9.81,0.01,0.02,-0.05,-0.31,0.75,9.81,-0.07,-0.02,0.18,-0.03,0.58,9.88,-0.05,-0.00,-0.02,1.72,0.52,9.75,3938.4263,10552.3623,0.11
227772840,-0.05,0.00,0.02,-0.39,0.77,9.82,-0.05,-0.00,0.00,-0.17,0.97,9.84,0.01,0.02,-0.05,-0.37,0.75,9.82,-0.07,-0.02,0.18,-0.02,0.59,9.88,-0.05,-0.00,-0.02,1.71,0.46,9.71,3938.4263,10552.3623,0.11
227778397,-0.06,0.00,0.01,-0.44,0.80,9.80,-0.05,-0.01,0.00,-0.17,1.03,9.78,0.01,0.02,-0.05,-0.36,0.75,9.79,-0.07,-0.02,0.18,-0.07,0.56,9.89,-0.05,-0.00,-0.02,1.71,0.54,9.71,3938.4263,10552.3623,0.11
227783950,-0.06,0.00,0.01,-0.38,0.77,9.79,-0.05,-0.00,0.00,-0.13,0.98,9.84,0.01,0.02,-0.05,-0.39,0.69,9.82,-0.07,-0.02,0.18,-0.06,0.64,9.85,-0.05,0.00,-0.01,1.68,0.46,9.78,3938.4263,10552.3623,0.11
227789742,-0.06,0.00,0.01,-0.36,0.78,9.80,-0.05,-0.00,0.00,-0.21,0.98,9.84,0.01,0.02,-0.05,-0.38,0.69,9.83,-0.07,-0.02,0.18,-0.04,0.59,9.89,-0.05,0.00,-0.01,1.73,0.49,9.75,3938.4263,10552.3623,0.11
227795488,-0.05,0.00,0.02,-0.41,0.78,9.83,-0.05,-0.00,-0.00,-0.19,0.93,9.84,0.01,0.02,-0.05,-0.36,0.67,9.82,-0.07,-0.02,0.18,-0.04,0.60,9.88,-0.05,0.00,-0.02,1.69,0.49,9.75,3938.4263,10552.3623,0.11
227801227,-0.06,0.00,0.02,-0.40,0.78,9.77,-0.05,-0.00,0.00,-0.20,0.97,9.83,0.01,0.02,-0.05,-0.36,0.68,9.82,-0.07,-0.02,0.18,0.01,0.61,9.92,-0.05,-0.00,-0.02,1.72,0.48,9.79,3938.4263,10552.3623,0.11
227807077,-0.05,0.01,0.02,-0.39,0.78,9.82,-0.05,-0.00,0.00,-0.19,1.00,9.87,0.01,0.02,-0.05,-0.39,0.71,9.84,-0.07,-0.03,0.18,-0.01,0.60,9.93,-0.05,-0.00,-0.02,1.71,0.46,9.78,3938.4263,10552.3623,0.11
227812975,-0.05,0.00,0.02,-0.40,0.77,9.79,-0.05,-0.00,0.00,-0.18,0.96,9.81,0.02,0.02,-0.05,-0.33,0.69,9.80,-0.07,-0.02,0.18,-0.01,0.58,9.92,-0.05,0.00,-0.02,1.74,0.46,9.76,3938.4263,10552.3623,0.11
227818852,-0.05,0.00,0.02,-0.44,0.76,9.79,-0.04,-0.01,0.00,-0.16,0.98,9.84,0.02,0.02,-0.05,-0.36,0.72,9.86,-0.07,-0.03,0.18,-0.04,0.58,9.87,-0.05,0.00,-0.02,1.74,0.54,9.76,3938.4263,10552.3623,0.11
227824725,-0.05,0.00,0.02,-0.41,0.75,9.80,-0.04,-0.00,0.00,-0.16,0.96,9.85,0.02,0.02,-0.05,-0.35,0.68,9.83,-0.06,-0.02,0.18,-0.01,0.54,9.94,-0.04,0.00,-0.02,1.70,0.50,9.79,3938.4263,10552.3623,0.11
227830520,-0.05,0.00,0.01,-0.41,0.74,9.83,-0.04,-0.00,-0.00,-0.18,0.97,9.84,0.02,0.02,-0.05,-0.37,0.67,9.82,-0.06,-0.03,0.18,-0.02,0.58,9.90,-0.04,-0.00,-0.02,1.76,0.48,9.79,3938.4263,10552.3623,0.11
227836268,-0.04,0.00,0.02,-0.41,0.77,9.82,-0.04,-0.00,-0.00,-0.16,0.97,9.82,0.02,0.02,-0.05,-0.39,0.71,9.83,-0.06,-0.02,0.18,-0.02,0.57,9.92,-0.04,-0.00,-0.02,1.75,0.48,9.78,3938.4263,10552.3623,0.11
227842027,-0.04,0.00,0.02,-0.40,0.70,9.82,-0.03,-0.00,0.00,-0.20,0.96,9.83,0.03,0.02,-0.05,-0.38,0.70,9.82,-0.06,-0.03,0.19,-0.01,0.56,9.92,-0.04,0.00,-0.02,1.70,0.48,9.79,3938.4263,10552.3623,0.11
227847817,-0.04,0.00,0.02,-0.39,0.73,9.78,-0.03,-0.00,-0.00,-0.19,0.98,9.82,0.03,0.02,-0.05,-0.34,0.68,9.84,-0.05,-0.02,0.18,-0.02,0.54,9.93,-0.03,-0.00,-0.02,1.72,0.51,9.80,3938.4263,10552.3623,0.11
227853627,-0.04,0.00,0.02,-0.42,0.76,9.78,-0.03,-0.00,0.00,-0.20,0.98,9.82,0.03,0.02,-0.05,-0.36,0.71,9.82,-0.05,-0.03,0.18,-0.03,0.58,9.91,-0.03,-0.00,-0.02,1.74,0.47,9.74,3938.4263,10552.3623,0.11
227859494,-0.04,0.00,0.01,-0.36,0.70,9.76,-0.03,-0.00,0.00,-0.20,0.97,9.84,0.03,0.02,-0.05,-0.39,0.71,9.79,-0.05,-0.03,0.18,-0.03,0.57,9.90,-0.03,-0.00,-0.02,1.71,0.46,9.72,3938.4263,10552.3623,0.11
227865384,-0.04,0.00,0.02,-0.42,0.77,9.77,-0.03,-0.00,0.00,-0.18,0.95,9.82,0.03,0.02,-0.05,-0.36,0.74,9.81,-0.06,-0.03,0.18,-0.03,0.58,9.88,-0.04,-0.00,-0.02,1.73,0.51,9.72,3938.4263,10552.3623,0.11
227871270,-0.04,0.00,0.02,-0.40,0.75,9.81,-0.03,-0.00,0.00,-0.20,0.92,9.83,0.03,0.02,-0.05,-0.35,0.69,9.82,-0.06,-0.03,0.18,-0.03,0.56,9.87,-0.04,-0.00,-0.02,1.68,0.48,9.72,3938.4263,10552.3623,0.11
227876216,-0.04,0.00,0.02,-0.43,0.75,9.79,-0.03,-0.00,0.00,-0.20,0.93,9.81,0.03,0.02,-0.05,-0.34,0.68,9.82,-0.06,-0.02,0.18,-0.03,0.58,9.88,-0.04,-0.00,-0.02,1.72,0.47,9.74,3938.4263,10552.3623,0.11
227881747,-0.04,0.01,0.01,-0.38,0.73,9.81,-0.04,-0.00,-0.00,-0.18,0.92,9.80,0.03,0.02,-0.05,-0.30,0.72,9.83,-0.06,-0.03,0.18,-0.03,0.53,9.85,-0.04,-0.00,-0.02,1.73,0.46,9.70,3938.4263,10552.3623,0.11
227888382,-0.04,0.00,0.02,-0.41,0.75,9.84,-0.04,-0.00,0.00,-0.19,0.99,9.84,0.02,0.02,-0.05,-0.32,0.67,9.82,-0.06,-0.03,0.18,-0.03,0.56,9.90,-0.04,0.00,-0.02,1.71,0.45,9.74,3938.4263,10552.3623,0.11
227893926,-0.04,0.00,0.02,-0.41,0.76,9.79,-0.04,-0.00,-0.00,-0.18,0.94,9.86,0.02,0.02,-0.05,-0.35,0.68,9.83,-0.06,-0.03,0.18,-0.03,0.52,9.90,-0.04,-0.00,-0.02,1.73,0.47,9.75,3938.4263,10552.3623,0.11
227900992,-0.04,0.00,0.02,-0.36,0.71,9.83,-0.03,-0.00,0.00,-0.21,0.97,9.83,0.03,0.02,-0.05,-0.37,0.69,9.81,-0.06,-0.03,0.18,-0.02,0.55,9.93,-0.04,-0.00,-0.02,1.68,0.48,9.78,3938.4263,10552.3623,0.11
227906570,-0.04,0.00,0.02,-0.41,0.71,9.83,-0.03,-0.00,0.00,-0.19,0.96,9.82,0.03,0.02,-0.05,-0.33,0.68,9.87,-0.06,-0.03,0.18,-0.04,0.56,9.92,-0.04,0.00,-0.02,1.74,0.44,9.78,3938.4263,10552.3623,0.11
227912468,-0.04,0.00,0.02,-0.40,0.75,9.81,-0.03,-0.00,0.00,-0.17,0.91,9.84,0.03,0.02,-0.05,-0.37,0.64,9.84,-0.06,-0.02,0.18,-0.03,0.56,9.87,-0.04,-0.00,-0.02,1.73,0.46,9.80,3938.4263,10552.3623,0.11
227918393,-0.04,0.00,0.02,-0.40,0.75,9.79,-0.03,-0.00,0.00,-0.20,0.95,9.81,0.03,0.02,-0.05,-0.31,0.67,9.82,-0.06,-0.02,0.18,-0.02,0.51,9.88,-0.04,0.00,-0.02,1.70,0.46,9.68,3938.4263,10552.3623,0.11
227924253,-0.04,0.00,0.02,-0.42,0.72,9.76,-0.03,-0.00,0.00,-0.17,0.98,9.80,0.03,0.02,-0.05,-0.38,0.68,9.82,-0.06,-0.03,0.18,-0.03,0.53,9.90,-0.04,-0.00,-0.02,1.71,0.49,9.73,3938.4263,10552.3623,0.11
227930014,-0.04,0.00,0.02,-0.38,0.76,9.82,-0.03,-0.00,0.00,-0.20,1.00,9.84,0.03,0.02,-0.05,-0.38,0.69,9.78,-0.06,-0.03,0.18,0.00,0.53,9.89,-0.04,-0.00,-0.02,1.71,0.47,9.71,3938.4263,10552.3623,0.11
227935758,-0.04,0.00,0.02,-0.40,0.72,9.81,-0.04,-0.00,0.00,-0.18,0.94,9.82,0.03,0.02,-0.05,-0.31,0.65,9.80,-0.06,-0.03,0.18,-0.02,0.54,9.88,-0.04,-0.00,-0.02,1.71,0.46,9.71,3938.4263,10552.3623,0.11
227941575,-0.04,0.00,0.02,-0.39,0.70,9.77,-0.03,-0.01,0.00,-0.20,0.96,9.83,0.02,0.02,-0.05,-0.34,0.70,9.81,-0.06,-0.02,0.18,-0.05,0.57,9.84,-0.04,0.00,-0.02,1.73,0.47,9.77,3938.4263,10552.3623,0.11
227947454,-0.04,0.00,0.01,-0.39,0.72,9.80,-0.04,-0.00,0.00,-0.20,0.91,9.80,0.02,0.02,-0.05,-0.34,0.64,9.80,-0.06,-0.02,0.18,0.02,0.56,9.87,-0.04,0.00,-0.02,1.74,0.46,9.76,3938.4263,10552.3623,0.11
227953351,-0.04,0.00,0.02,-0.38,0.73,9.80,-0.04,-0.00,0.00,-0.18,0.95,9.81,0.02,0.02,-0.05,-0.34,0.64,9.82,-0.06,-0.02,0.18,0.01,0.53,9.88,-0.04,0.00,-0.02,1.71,0.45,9.76,3938.4263,10552.3623,0.11
227959208,-0.05,0.00,0.02,-0.42,0.72,9.80,-0.04,-0.00,0.00,-0.21,0.96,9.81,0.02,0.02,-0.05,-0.35,0.66,9.82,-0.06,-0.02,0.18,-0.01,0.54,9.89,-0.04,-0.00,-0.02,1.72,0.45,9.74,3938.4263,10552.3623,0.11
227965051,-0.05,0.00,0.02,-0.40,0.70,9.80,-0.04,-0.00,0.00,-0.19,0.89,9.81,0.02,0.02,-0.05,-0.38,0.68,9.81,-0.06,-0.02,0.18,-0.07,0.54,9.94,-0.04,-0.00,-0.02,1.70,0.46,9.73,3938.4263,10552.3623,0.11
227970915,-0.05,0.00,0.02,-0.39,0.70,9.78,-0.04,-0.00,0.00,-0.18,0.91,9.80,0.02,0.02,-0.05,-0.34,0.67,9.82,-0.07,-0.03,0.18,0.00,0.58,9.88,-0.05,-0.00,-0.02,1.71,0.42,9.74,3938.4263,10552.3623,0.11
227976734,-0.05,0.00,0.02,-0.40,0.71,9.80,-0.04,-0.00,0.00,-0.18,0.93,9.83,0.02,0.02,-0.05,-0.34,0.64,9.82,-0.07,-0.03,0.18,-0.01,0.56,9.89,-0.05,-0.00,-0.02,1.72,0.44,9.71,3938.4263,10552.3623,0.11
227982567,-0.05,0.00,0.02,-0.40,0.70,9.78,-0.04,-0.01,0.00,-0.20,0.94,9.77,0.01,0.02,-0.05,-0.35,0.64,9.82,-0.07,-0.02,0.18,-0.02,0.54,9.86,-0.05,-0.00,-0.02,1.70,0.47,9.72,3938.4263,10552.3623,0.11
227988365,-0.06,0.00,0.01,-0.42,0.71,9.76,-0.05,-0.00,0.00,-0.19,0.95,9.79,0.02,0.02,-0.05,-0.36,0.64,9.76,-0.07,-0.03,0.18,-0.02,0.56,9.84,-0.06,-0.00,-0.02,1.72,0.43,9.74,3938.4263,10552.3623,0.11
227993958,-0.06,0.00,0.02,-0.40,0.72,9.78,-0.05,-0.00,-0.00,-0.17,0.92,9.85,0.01,0.02,-0.05,-0.35,0.66,9.85,-0.07,-0.02,0.18,-0.04,0.54,9.86,-0.05,-0.00,-0.02,1.71,0.42,9.69,3938.4263,10552.3623,0.11
227999604,-0.06,0.00,0.02,-0.38,0.69,9.78,-0.05,-0.00,0.00,-0.22,0.93,9.85,0.01,0.02,-0.05,-0.34,0.64,9.79,-0.08,-0.02,0.18,-0.07,0.56,9.85,-0.06,0.00,-0.02,1.72,0.45,9.73,3938.4263,10552.3623,0.11
228005205,-0.06,0.00,0.02,-0.37,0.73,9.78,-0.06,-0.00,0.00,-0.23,0.93,9.82,0.00,0.02,-0.05,-0.37,0.63,9.80,-0.08,-0.02,0.18,0.01,0.49,9.85,-0.06,0.00,-0.01,1.70,0.44,9.74,3938.4263,10552.3623,0.11
228019924,-0.07,0.00,0.02,-0.42,0.72,9.77,-0.06,-0.00,0.00,-0.19,0.86,9.77,-0.00,0.02,-0.05,-0.33,0.62,9.80,-0.08,-0.02,0.18,0.00,0.48,9.83,-0.07,0.00,-0.01,1.75,0.41,9.74,3938.4263,10552.3623,0.11
228025453,-0.07,0.00,0.02,-0.41,0.70,9.75,-0.06,-0.00,0.00,-0.21,0.92,9.80,-0.00,0.02,-0.05,-0.36,0.64,9.82,-0.09,-0.02,0.18,-0.04,0.50,9.92,-0.07,0.00,-0.01,1.71,0.42,9.73,3938.4263,10552.3623,0.11
228030987,-0.07,0.00,0.01,-0.43,0.65,9.81,-0.06,-0.00,-0.00,-0.17,0.88,9.84,-0.00,0.02,-0.05,-0.35,0.60,9.84,-0.08,-0.02,0.18,-0.02,0.46,9.90,-0.07,-0.00,-0.01,1.69,0.42,9.74,3938.4263,10552.3623,0.11
228036854,-0.07,0.00,0.02,-0.41,0.69,9.84,-0.06,-0.00,0.00,-0.18,0.87,9.86,0.00,0.02,-0.05,-0.37,0.60,9.85,-0.08,-0.02,0.18,-0.02,0.51,9.87,-0.06,0.00,-0.01,1.68,0.41,9.79,3938.4263,10552.3623,0.11
228042743,-0.07,0.00,0.02,-0.42,0.67,9.84,-0.06,-0.01,0.00,-0.18,0.90,9.87,0.00,0.02,-0.05,-0.36,0.61,9.83,-0.08,-0.02,0.18,-0.01,0.51,9.88,-0.06,0.00,-0.01,1.71,0.37,9.79,3938.4263,10552.3623,0.11
228048639,-0.06,0.00,0.02,-0.38,0.65,9.81,-0.06,-0.00,0.00,-0.17,0.90,9.84,0.00,0.02,-0.05,-0.35,0.61,9.86,-0.08,-0.02,0.18,-0.04,0.48,9.97,-0.06,0.00,-0.01,1.71,0.40,9.78,3938.4263,10552.3623,0.11
228054540,-0.06,0.00,0.02,-0.41,0.67,9.83,-0.05,-0.00,0.00,-0.22,0.86,9.88,0.01,0.02,-0.05,-0.36,0.58,9.86,-0.07,-0.02,0.18,-0.07,0.46,9.94,-0.05,-0.00,-0.02,1.73,0.36,9.80,3938.4263,10552.3623,0.11
228060424,-0.06,0.00,0.02,-0.42,0.65,9.81,-0.05,-0.00,0.00,-0.21,0.88,9.85,0.01,0.02,-0.05,-0.37,0.61,9.85,-0.07,-0.02,0.18,-0.01,0.51,9.95,-0.05,-0.00,-0.02,1.69,0.37,9.79,3938.4263,10552.3623,0.11
228066207,-0.05,0.00,0.02,-0.41,0.65,9.85,-0.05,-0.00,-0.00,-0.22,0.83,9.90,0.02,0.02,-0.05,-0.35,0.60,9.85,-0.07,-0.02,0.18,-0.03,0.51,9.94,-0.05,-0.00,-0.02,1.75,0.40,9.78,3938.4263,10552.3623,0.11
228071952,-0.05,0.00,0.02,-0.38,0.67,9.83,-0.04,-0.01,0.00,-0.18,0.86,9.86,0.02,0.02,-0.05,-0.38,0.59,9.85,-0.06,-0.03,0.18,-0.04,0.48,9.92,-0.05,0.00,-0.02,1.73,0.38,9.74,3938.4263,10552.3623,0.11
228077711,-0.04,0.01,0.02,-0.40,0.70,9.83,-0.04,-0.01,-0.00,-0.15,0.87,9.84,0.02,0.02,-0.05,-0.35,0.61,9.84,-0.06,-0.03,0.18,-0.03,0.51,9.93,-0.04,0.00,-0.02,1.71,0.38,9.75,3938.4263,10552.3623,0.11
228085157,-0.04,0.00,0.02,-0.41,0.62,9.82,-0.04,-0.01,0.00,-0.18,0.86,9.84,0.03,0.02,-0.05,-0.33,0.59,9.89,-0.06,-0.03,0.18,-0.02,0.46,9.92,-0.04,-0.00,-0.02,1.72,0.37,9.81,3938.4263,10552.3623,0.11
228091040,-0.04,0.00,0.02,-0.43,0.65,9.84,-0.03,-0.00,0.00,-0.18,0.85,9.85,0.03,0.02,-0.05,-0.33,0.59,9.85,-0.06,-0.03,0.18,-0.02,0.47,9.89,-0.04,0.00,-0.02,1.76,0.39,9.80,3938.4263,10552.3623,0.11
228096947,-0.04,0.00,0.02,-0.40,0.64,9.85,-0.03,-0.00,0.00,-0.18,0.91,9.86,0.03,0.02,-0.05,-0.37,0.59,9.84,-0.06,-0.03,0.18,-0.02,0.49,9.89,-0.04,0.00,-0.02,1.69,0.42,9.76,3938.4263,10552.3623,0.11
228102836,-0.03,0.00,0.02,-0.42,0.66,9.85,-0.03,-0.00,0.00,-0.20,0.85,9.84,0.03,0.02,-0.05,-0.37,0.63,9.85,-0.05,-0.03,0.18,-0.01,0.48,9.92,-0.03,-0.00,-0.02,1.71,0.35,9.79,3938.4263,10552.3623,0.11
228108661,-0.04,0.00,0.02,-0.42,0.67,9.85,-0.03,-0.00,0.00,-0.17,0.84,9.88,0.03,0.02,-0.05,-0.34,0.59,9.81,-0.05,-0.03,0.18,-0.03,0.48,9.90,-0.03,-0.00,-0.02,1.71,0.40,9.74,3938.4263,10552.3623,0.11
228114451,-0.04,0.00,0.02,-0.39,0.65,9.76,-0.03,-0.00,0.00,-0.17,0.87,9.85,0.03,0.02,-0.05,-0.37,0.60,9.81,-0.05,-0.03,0.18,-0.01,0.49,9.89,-0.03,-0.00,-0.02,1.70,0.39,9.72,3938.4263,10552.3623,0.11
228120258,-0.04,0.00,0.02,-0.40,0.66,9.77,-0.03,-0.01,0.00,-0.16,0.87,9.83,0.03,0.02,-0.05,-0.36,0.59,9.82,-0.05,-0.03,0.18,-0.03,0.47,9.87,-0.03,-0.00,-0.02,1.73,0.39,9.72,3938.4263,10552.3623,0.11
228125786,-0.04,0.00,0.02,-0.37,0.66,9.75,-0.03,-0.00,0.00,-0.20,0.85,9.84,0.03,0.02,-0.05,-0.36,0.61,9.82,-0.05,-0.03,0.18,-0.06,0.48,9.89,-0.04,-0.00,-0.02,1.76,0.37,9.74,3938.4263,10552.3623,0.11
228131375,-0.04,0.00,0.01,-0.43,0.66,9.81,-0.03,-0.00,-0.00,-0.17,0.86,9.79,0.03,0.02,-0.05,-0.39,0.60,9.84,-0.06,-0.02,0.18,-0.02,0.47,9.84,-0.04,0.00,-0.02,1.72,0.41,9.72,3938.4263,10552.3623,0.11
228138171,-0.04,0.00,0.02,-0.38,0.65,9.78,-0.04,-0.01,0.00,-0.21,0.87,9.81,0.02,0.02,-0.05,-0.37,0.59,9.80,-0.06,-0.03,0.18,-0.03,0.45,9.87,-0.04,-0.00,-0.02,1.71,0.36,9.72,3938.4263,10552.3623,0.11
228143736,-0.04,0.00,0.02,-0.39,0.66,9.79,-0.04,-0.00,0.00,-0.18,0.84,9.82,0.02,0.02,-0.05,-0.35,0.59,9.82,-0.06,-0.02,0.18,-0.01,0.46,9.86,-0.04,-0.00,-0.02,1.71,0.37,9.73,3938.4263,10552.3623,0.11
228149279,-0.05,0.00,0.02,-0.39,0.66,9.78,-0.04,-0.00,0.00,-0.16,0.85,9.82,0.02,0.02,-0.05,-0.34,0.56,9.77,-0.06,-0.02,0.18,-0.01,0.47,9.84,-0.04,0.00,-0.02,1.73,0.37,9.74,3938.4263,10552.3623,0.11
228154762,-0.05,0.00,0.02,-0.38,0.66,9.80,-0.04,-0.00,0.00,-0.23,0.81,9.84,0.02,0.02,-0.04,-0.36,0.59,9.80,-0.06,-0.02,0.18,-0.05,0.45,9.85,-0.04,0.00,-0.02,1.75,0.41,9.80,3938.4263,10552.3623,0.11
228160558,-0.05,0.00,0.02,-0.45,0.61,9.82,-0.04,-0.00,0.00,-0.18,0.81,9.81,0.02,0.02,-0.05,-0.31,0.55,9.79,-0.07,-0.02,0.18,-0.04,0.45,9.91,-0.05,-0.00,-0.02,1.75,0.32,9.74,3938.4263,10552.3623,0.11
228166366,-0.05,0.00,0.02,-0.42,0.62,9.80,-0.04,-0.00,0.00,-0.20,0.86,9.86,0.02,0.02,-0.05,-0.35,0.57,9.83,-0.07,-0.02,0.18,-0.01,0.51,9.91,-0.05,0.00,-0.02,1.75,0.38,9.73,3938.4263,10552.3623,0.11
228172199,-0.05,0.00,0.01,-0.41,0.65,9.83,-0.04,-0.00,0.00,-0.20,0.86,9.82,0.02,0.02,-0.05,-0.35,0.56,9.81,-0.07,-0.03,0.18,-0.03,0.43,9.85,-0.05,-0.00,-0.02,1.73,0.37,9.76,3938.4263,10552.3623,0.11
228178036,-0.05,0.00,0.02,-0.39,0.65,9.85,-0.04,-0.00,0.00,-0.19,0.81,9.84,0.02,0.02,-0.05,-0.37,0.56,9.86,-0.07,-0.03,0.18,-0.02,0.47,9.88,-0.05,-0.00,-0.02,1.73,0.34,9.79,3938.4263,10552.3623,0.11
228183908,-0.05,0.00,0.02,-0.39,0.64,9.80,-0.04,-0.00,0.00,-0.17,0.86,9.85,0.02,0.02,-0.05,-0.36,0.59,9.85,-0.07,-0.02,0.18,-0.07,0.44,9.88,-0.05,-0.00,-0.02,1.71,0.33,9.75,3938.4263,10552.3623,0.11
228189378,-0.05,0.00,0.02,-0.39,0.62,9.80,-0.04,-0.00,0.00,-0.20,0.80,9.84,0.02,0.02,-0.05,-0.32,0.53,9.82,-0.06,-0.03,0.18,0.00,0.45,9.90,-0.05,-0.00,-0.02,1.70,0.35,9.74,3938.4263,10552.3623,0.11
228195619,-0.05,0.00,0.01,-0.41,0.65,9.80,-0.05,-0.00,0.00,-0.16,0.82,9.84,0.02,0.02,-0.05,-0.34,0.55,9.79,-0.07,-0.02,0.18,-0.05,0.48,9.88,-0.05,-0.00,-0.02,1.73,0.36,9.74,3938.4263,10552.3623,0.11
228201413,-0.05,0.00,0.02,-0.42,0.57,9.81,-0.04,-0.00,0.00,-0.18,0.83,9.82,0.02,0.02,-0.05,-0.35,0.55,9.79,-0.07,-0.02,0.18,-0.01,0.45,9.87,-0.05,-0.00,-0.02,1.72,0.34,9.77,3938.4263,10552.3623,0.11
228207108,-0.05,0.00,0.02,-0.41,0.65,9.79,-0.04,-0.00,0.00,-0.19,0.82,9.85,0.02,0.02,-0.05,-0.33,0.56,9.79,-0.07,-0.02,0.18,-0.01,0.42,9.87,-0.05,-0.00,-0.01,1.74,0.37,9.73,3938.4263,10552.3623,0.14
228212823,-0.05,0.00,0.02,-0.44,0.63,9.82,-0.04,-0.01,0.00,-0.17,0.77,9.86,0.02,0.02,-0.05,-0.35,0.57,9.82,-0.07,-0.03,0.18,-0.02,0.40,9.91,-0.05,0.00,-0.02,1.71,0.38,9.75,3938.4263,10552.3623,0.14
228218636,-0.05,0.01,0.02,-0.41,0.61,9.83,-0.04,-0.01,0.00,-0.20,0.80,9.84,0.02,0.02,-0.05,-0.35,0.55,9.79,-0.07,-0.02,0.18,-0.03,0.43,9.89,-0.05,-0.00,-0.02,1.73,0.34,9.76,3938.4263,10552.3623,0.14
228224449,-0.06,0.00,0.02,-0.38,0.64,9.82,-0.05,-0.00,0.00,-0.19,0.85,9.81,0.01,0.02,-0.05,-0.37,0.55,9.84,-0.07,-0.03,0.18,-0.03,0.42,9.92,-0.05,-0.00,-0.02,1.71,0.34,9.71,3938.4263,10552.3623,0.14
228230374,-0.06,0.00,0.01,-0.40,0.64,9.79,-0.05,-0.00,0.00,-0.21,0.80,9.84,0.01,0.02,-0.05,-0.35,0.55,9.81,-0.07,-0.03,0.18,-0.01,0.39,9.86,-0.05,-0.00,-0.02,1.71,0.34,9.76,3938.4263,10552.3623,0.14
228236250,-0.06,0.00,0.02,-0.39,0.62,9.79,-0.05,-0.01,0.00,-0.22,0.83,9.84,0.01,0.02,-0.05,-0.34,0.56,9.81,-0.07,-0.03,0.18,-0.10,0.44,9.92,-0.05,-0.00,-0.01,1.72,0.34,9.74,3938.4263,10552.3623,0.14
228241820,-0.06,0.00,0.02,-0.42,0.59,9.78,-0.05,-0.01,0.00,-0.18,0.80,9.86,0.01,0.02,-0.05,-0.35,0.54,9.83,-0.07,-0.02,0.18,-0.01,0.43,9.88,-0.05,0.00,-0.02,1.76,0.34,9.71,3938.4263,10552.3623,0.14
228247436,-0.06,0.00,0.02,-0.42,0.64,9.82,-0.05,-0.00,0.00,-0.19,0.78,9.84,0.01,0.02,-0.05,-0.35,0.56,9.84,-0.07,-0.02,0.18,-0.04,0.42,9.88,-0.06,-0.00,-0.02,1.73,0.38,9.75,3938.4263,10552.3623,0.14
228252917,-0.06,0.00,0.01,-0.44,0.61,9.80,-0.05,-0.00,0.00,-0.17,0.82,9.84,0.01,0.02,-0.05,-0.39,0.57,9.79,-0.07,-0.02,0.18,-0.04,0.39,9.89,-0.05,-0.00,-0.01,1.70,0.29,9.77,3938.4263,10552.3623,0.14
228259582,-0.06,0.00,0.01,-0.44,0.60,9.79,-0.05,-0.00,0.00,-0.19,0.80,9.79,0.01,0.02,-0.05,-0.37,0.54,9.84,-0.07,-0.02,0.18,-0.03,0.41,9.89,-0.06,0.00,-0.02,1.75,0.31,9.74,3938.4263,10552.3623,0.14
228266766,-0.06,0.01,0.02,-0.40,0.61,9.80,-0.05,-0.00,0.00,-0.18,0.82,9.88,0.01,0.02,-0.05,-0.38,0.54,9.82,-0.08,-0.02,0.18,-0.02,0.40,9.89,-0.06,0.00,-0.01,1.75,0.32,9.74,3938.4263,10552.3623,0.14
228272301,-0.06,0.00,0.01,-0.43,0.62,9.77,-0.05,-0.00,0.00,-0.18,0.81,9.78,0.01,0.02,-0.05,-0.37,0.53,9.84,-0.08,-0.02,0.18,-0.02,0.46,9.89,-0.06,-0.00,-0.01,1.70,0.32,9.73,3938.4263,10552.3623,0.14
228278218,-0.06,0.00,0.01,-0.38,0.60,9.79,-0.06,-0.00,0.00,-0.19,0.81,9.84,0.00,0.02,-0.05,-0.36,0.54,9.80,-0.08,-0.02,0.18,-0.04,0.40,9.91,-0.06,0.00,-0.01,1.71,0.33,9.74,3938.4263,10552.3623,0.14
228284089,-0.07,0.00,0.01,-0.36,0.55,9.77,-0.06,-0.00,0.00,-0.14,0.80,9.84,0.00,0.02,-0.05,-0.37,0.58,9.80,-0.08,-0.03,0.19,-0.05,0.38,9.88,-0.06,-0.00,-0.01,1.72,0.30,9.73,3938.4263,10552.3623,0.14
228289944,-0.07,0.00,0.02,-0.44,0.60,9.79,-0.06,-0.01,0.00,-0.20,0.82,9.81,0.00,0.02,-0.05,-0.33,0.53,9.80,-0.08,-0.03,0.18,-0.03,0.41,9.85,-0.07,0.00,-0.01,1.73,0.31,9.78,3938.4263,10552.3623,0.14
228295800,-0.07,0.01,0.02,-0.40,0.57,9.82,-0.06,-0.00,0.00,-0.24,0.79,9.85,-0.00,0.02,-0.05,-0.38,0.50,9.82,-0.08,-0.03,0.18,-0.04,0.40,9.90,-0.06,-0.00,-0.01,1.74,0.34,9.79,3938.4263,10552.3623,0.14
228301515,-0.07,0.01,0.02,-0.39,0.54,9.78,-0.06,-0.00,0.00,-0.22,0.81,9.82,-0.00,0.02,-0.05,-0.35,0.50,9.82,-0.08,-0.02,0.18,-0.01,0.37,9.88,-0.06,-0.00,-0.01,1.70,0.28,9.78,3938.4263,10552.3623,0.14
228307301,-0.07,0.01,0.02,-0.41,0.59,9.83,-0.06,-0.00,0.00,-0.17,0.74,9.80,-0.00,0.02,-0.05,-0.32,0.54,9.82,-0.09,-0.02,0.18,-0.01,0.37,9.91,-0.07,-0.00,-0.01,1.72,0.31,9.74,3938.4263,10552.3623,0.14
228313063,-0.07,0.00,0.02,-0.39,0.58,9.81,-0.06,-0.00,0.00,-0.20,0.80,9.84,-0.00,0.02,-0.05,-0.36,0.54,9.82,-0.09,-0.03,0.18,0.01,0.38,9.90,-0.07,-0.00,-0.01,1.71,0.31,9.74,3938.4263,10552.3623,0.14
228318879,-0.08,0.01,0.01,-0.38,0.60,9.80,-0.07,-0.00,0.00,-0.16,0.83,9.84,-0.01,0.02,-0.05,-0.32,0.50,9.81,-0.09,-0.03,0.18,-0.03,0.36,9.87,-0.07,-0.01,-0.01,1.73,0.32,9.68,3938.4263,10552.3623,0.14
228324766,-0.08,0.01,0.02,-0.42,0.55,9.79,-0.07,-0.00,0.00,-0.18,0.79,9.85,-0.01,0.02,-0.05,-0.30,0.50,9.82,-0.09,-0.02,0.18,-0.01,0.38,9.91,-0.07,-0.00,-0.01,1.73,0.28,9.72,3938.4263,10552.3623,0.14
228330610,-0.08,0.00,0.02,-0.38,0.54,9.85,-0.07,-0.00,0.00,-0.18,0.75,9.86,-0.01,0.02,-0.05,-0.33,0.49,9.83,-0.09,-0.02,0.18,-0.03,0.37,9.87,-0.07,-0.00,-0.01,1.75,0.30,9.80,3938.4263,10552.3623,0.14
228336533,-0.08,0.00,0.02,-0.41,0.59,9.84,-0.07,-0.00,-0.00,-0.18,0.75,9.80,-0.01,0.02,-0.05,-0.32,0.50,9.82,-0.09,-0.03,0.18,-0.01,0.35,9.88,-0.07,0.00,-0.01,1.74,0.28,9.72,3938.4263,10552.3623,0.14
228342329,-0.08,0.00,0.02,-0.40,0.55,9.81,-0.07,-0.00,-0.00,-0.20,0.80,9.83,-0.01,0.02,-0.05,-0.39,0.50,9.82,-0.10,-0.02,0.18,-0.03,0.34,9.91,-0.08,-0.00,-0.01,1.71,0.26,9.76,3938.4263,10552.3623,0.14
228348077,-0.08,0.00,0.02,-0.42,0.52,9.80,-0.07,-0.00,0.00,-0.20,0.76,9.82,-0.01,0.02,-0.05,-0.35,0.48,9.83,-0.10,-0.03,0.18,-0.02,0.33,9.89,-0.08,-0.00,-0.01,1.73,0.29,9.77,3938.4263,10552.3623,0.14
228353887,-0.08,0.01,0.02,-0.40,0.53,9.79,-0.08,-0.00,0.00,-0.21,0.73,9.80,-0.02,0.02,-0.05,-0.37,0.51,9.82,-0.10,-0.02,0.18,-0.05,0.35,9.91,-0.08,-0.00,-0.01,1.73,0.29,9.75,3938.4263,10552.3623,0.14
228359443,-0.09,0.00,0.02,-0.40,0.51,9.82,-0.08,-0.00,0.00,-0.19,0.75,9.86,-0.02,0.02,-0.05,-0.32,0.49,9.82,-0.10,-0.03,0.18,-0.03,0.35,9.83,-0.08,-0.00,-0.01,1.73,0.30,9.74,3938.4263,10552.3623,0.14
228365058,-0.09,0.00,0.02,-0.41,0.55,9.83,-0.08,-0.00,0.00,-0.21,0.75,9.83,-0.02,0.02,-0.05,-0.33,0.51,9.80,-0.11,-0.03,0.18,-0.03,0.32,9.86,-0.09,-0.00,-0.01,1.70,0.25,9.74,3938.4263,10552.3623,0.14
228370655,-0.09,0.00,0.01,-0.43,0.52,9.84,-0.08,-0.00,0.00,-0.19,0.71,9.90,-0.02,0.02,-0.05,-0.36,0.47,9.84,-0.11,-0.03,0.18,-0.08,0.37,9.89,-0.09,-0.00,-0.01,1.70,0.27,9.68,3938.4263,10552.3623,0.14
228377389,-0.09,0.00,0.02,-0.39,0.50,9.85,-0.08,-0.00,-0.00,-0.19,0.69,9.85,-0.02,0.02,-0.05,-0.36,0.44,9.89,-0.10,-0.02,0.18,-0.04,0.33,9.93,-0.08,0.00,-0.01,1.75,0.22,9.77,3938.4263,10552.3623,0.14
228382955,-0.08,0.00,0.01,-0.47,0.49,9.83,-0.07,-0.00,0.00,-0.16,0.72,9.89,-0.01,0.02,-0.05,-0.35,0.45,9.85,-0.10,-0.03,0.18,-0.02,0.31,9.96,-0.08,-0.00,-0.01,1.75,0.21,9.87,3938.4263,10552.3623,0.14
228388416,-0.07,0.00,0.02,-0.42,0.46,9.86,-0.07,-0.00,0.00,-0.18,0.71,9.89,-0.00,0.02,-0.05,-0.35,0.47,9.89,-0.09,-0.02,0.18,-0.01,0.32,9.97,-0.07,0.00,-0.01,1.74,0.22,9.86,3938.4263,10552.3623,0.14
228393876,-0.06,0.00,0.02,-0.40,0.51,9.87,-0.06,-0.01,0.00,-0.22,0.73,9.90,0.00,0.02,-0.05,-0.35,0.45,9.91,-0.08,-0.03,0.18,-0.04,0.32,9.97,-0.06,-0.00,-0.02,1.75,0.22,9.88,3938.4263,10552.3623,0.14
228399693,-0.05,0.00,0.02,-0.42,0.45,9.87,-0.05,-0.00,0.00,-0.19,0.67,9.91,0.01,0.02,-0.05,-0.33,0.48,9.87,-0.07,-0.03,0.18,-0.06,0.29,9.95,-0.05,-0.00,-0.01,1.70,0.19,9.82,3938.4263,10552.3623,0.14
228405515,-0.05,0.00,0.02,-0.43,0.53,9.85,-0.04,-0.00,0.00,-0.20,0.73,9.88,0.02,0.02,-0.05,-0.32,0.44,9.86,-0.07,-0.03,0.18,-0.03,0.33,9.94,-0.05,-0.00,-0.02,1.72,0.21,9.77,3938.4263,10552.3623,0.14
228411436,-0.05,0.00,0.02,-0.46,0.50,9.85,-0.04,-0.00,-0.00,-0.19,0.69,9.88,0.02,0.02,-0.05,-0.36,0.42,9.87,-0.06,-0.03,0.18,-0.03,0.31,9.92,-0.04,-0.00,-0.02,1.73,0.19,9.78,3938.4263,10552.3623,0.14
228417322,-0.04,0.00,0.02,-0.41,0.50,9.88,-0.03,-0.00,0.00,-0.18,0.73,9.91,0.03,0.02,-0.05,-0.34,0.47,9.82,-0.05,-0.03,0.18,-0.02,0.35,9.96,-0.03,-0.00,-0.02,1.75,0.19,9.74,3938.4263,10552.3623,0.14
228423198,-0.03,0.00,0.02,-0.39,0.49,9.84,-0.02,-0.01,0.00,-0.21,0.70,9.88,0.04,0.02,-0.05,-0.35,0.42,9.84,-0.05,-0.02,0.18,-0.03,0.30,9.96,-0.03,0.00,-0.02,1.75,0.22,9.78,3938.4263,10552.3623,0.14
228429077,-0.02,0.00,0.01,-0.41,0.50,9.86,-0.02,-0.01,0.00,-0.18,0.71,9.91,0.04,0.02,-0.05,-0.37,0.43,9.88,-0.04,-0.03,0.18,-0.06,0.33,9.94,-0.02,-0.00,-0.02,1.72,0.19,9.82,3938.4263,10552.3623,0.14
228434806,-0.02,0.00,0.02,-0.43,0.48,9.83,-0.02,-0.00,0.00,-0.18,0.67,9.91,0.05,0.02,-0.05,-0.34,0.44,9.89,-0.04,-0.02,0.18,-0.02,0.32,9.94,-0.02,-0.00,-0.02,1.69,0.21,9.80,3938.4263,10552.3623,0.14
228440606,-0.02,0.00,0.02,-0.44,0.49,9.83,-0.01,-0.01,0.00,-0.19,0.72,9.87,0.05,0.02,-0.05,-0.35,0.44,9.86,-0.03,-0.03,0.18,-0.02,0.29,9.95,-0.01,-0.00,-0.02,1.75,0.21,9.78,3938.4263,10552.3623,0.14
228447815,-0.01,0.01,0.02,-0.46,0.49,9.84,-0.01,-0.01,0.00,-0.21,0.70,9.85,0.06,0.02,-0.05,-0.35,0.39,9.86,-0.03,-0.03,0.18,-0.07,0.30,9.93,-0.01,0.00,-0.02,1.68,0.24,9.76,3938.4263,10552.3623,0.14
228453595,-0.01,0.00,0.02,-0.44,0.52,9.82,-0.01,-0.00,0.00,-0.18,0.64,9.86,0.06,0.02,-0.04,-0.34,0.48,9.84,-0.03,-0.03,0.18,0.00,0.29,9.91,-0.01,-0.00,-0.03,1.68,0.23,9.73,3938.4263,10552.3623,0.14
228459528,-0.01,0.00,0.02,-0.42,0.52,9.85,-0.00,-0.01,0.00,-0.20,0.72,9.86,0.06,0.02,-0.05,-0.35,0.48,9.84,-0.03,-0.03,0.18,-0.03,0.30,9.92,-0.01,0.00,-0.03,1.70,0.21,9.75,3938.4263,10552.3623,0.14
228465443,-0.01,0.00,0.02,-0.42,0.50,9.82,-0.00,-0.00,0.00,-0.19,0.66,9.84,0.06,0.02,-0.05,-0.36,0.47,9.81,-0.03,-0.03,0.18,-0.04,0.33,9.91,-0.01,-0.00,-0.03,1.77,0.25,9.74,3938.4263,10552.3623,0.14
228471337,-0.01,0.00,0.02,-0.41,0.54,9.82,-0.01,-0.00,-0.00,-0.21,0.71,9.82,0.06,0.02,-0.05,-0.33,0.44,9.81,-0.03,-0.03,0.18,-0.02,0.32,9.85,-0.01,-0.00,-0.02,1.74,0.26,9.76,3938.4263,10552.3623,0.14
228477241,-0.01,0.00,0.02,-0.41,0.48,9.77,-0.01,-0.01,0.00,-0.18,0.77,9.80,0.05,0.02,-0.05,-0.35,0.41,9.81,-0.03,-0.03,0.18,-0.04,0.29,9.87,-0.01,-0.00,-0.02,1.70,0.25,9.74,3938.4263,10552.3623,0.14
228482742,-0.02,0.00,0.02,-0.40,0.50,9.79,-0.01,-0.00,0.00,-0.21,0.70,9.79,0.05,0.02,-0.05,-0.35,0.44,9.83,-0.03,-0.03,0.18,0.00,0.32,9.86,-0.01,-0.00,-0.02,1.71,0.24,9.71,3938.4263,10552.3623,0.14
228488253,-0.02,0.00,0.02,-0.40,0.55,9.81,-0.01,-0.00,0.00,-0.17,0.71,9.84,0.05,0.02,-0.04,-0.36,0.47,9.87,-0.03,-0.03,0.18,-0.01,0.29,9.88,-0.01,-0.00,-0.02,1.74,0.26,9.71,3938.4263,10552.3623,0.14
228493818,-0.02,0.00,0.02,-0.43,0.50,9.82,-0.01,-0.00,0.00,-0.19,0.73,9.81,0.05,0.02,-0.05,-0.36,0.44,9.85,-0.04,-0.03,0.18,-0.02,0.32,9.86,-0.02,-0.00,-0.02,1.72,0.25,9.71,3938.4263,10552.3623,0.14
228505286,-0.03,0.00,0.02,-0.39,0.50,9.76,-0.02,-0.01,-0.00,-0.20,0.72,9.81,0.04,0.02,-0.05,-0.33,0.44,9.82,-0.05,-0.03,0.18,-0.04,0.34,9.89,-0.03,-0.00,-0.02,1.75,0.26,9.75,3938.4263,10552.3623,0.14
228510861,-0.03,0.00,0.02,-0.43,0.48,9.78,-0.03,-0.00,0.00,-0.20,0.72,9.79,0.03,0.02,-0.05,-0.36,0.46,9.82,-0.05,-0.03,0.18,-0.01,0.35,9.84,-0.03,-0.00,-0.02,1.70,0.23,9.70,3938.4263,10552.3623,0.14
228516473,-0.04,0.00,0.02,-0.39,0.50,9.82,-0.03,-0.00,0.00,-0.22,0.70,9.84,0.03,0.02,-0.05,-0.31,0.45,9.84,-0.05,-0.03,0.18,-0.04,0.31,9.87,-0.03,-0.00,-0.02,1.72,0.24,9.68,3938.4263,10552.3623,0.14
228522289,-0.04,0.00,0.01,-0.42,0.52,9.82,-0.03,-0.00,0.00,-0.14,0.71,9.80,0.03,0.02,-0.05,-0.34,0.44,9.82,-0.05,-0.02,0.18,-0.03,0.30,9.88,-0.03,-0.00,-0.02,1.70,0.23,9.71,3938.4263,10552.3623,0.14
228528018,-0.04,0.00,0.02,-0.38,0.47,9.78,-0.03,-0.00,0.00,-0.20,0.70,9.84,0.03,0.02,-0.05,-0.35,0.47,9.82,-0.05,-0.03,0.18,-0.01,0.33,9.87,-0.03,0.00,-0.02,1.75,0.26,9.80,3938.4263,10552.3623,0.14
228533791,-0.04,0.00,0.02,-0.42,0.53,9.78,-0.03,-0.01,0.00,-0.19,0.73,9.82,0.03,0.02,-0.05,-0.34,0.47,9.82,-0.06,-0.03,0.18,-0.04,0.35,9.87,-0.04,-0.00,-0.02,1.70,0.24,9.77,3938.4263,10552.3623,0.14
228539595,-0.05,0.00,0.02,-0.43,0.46,9.79,-0.04,-0.00,0.00,-0.18,0.75,9.82,0.02,0.02,-0.05,-0.36,0.43,9.82,-0.06,-0.03,0.18,0.01,0.34,9.89,-0.04,-0.00,-0.02,1.69,0.25,9.76,3938.4263,10552.3623,0.14
228545466,-0.05,0.00,0.02,-0.41,0.49,9.77,-0.05,-0.00,0.00,-0.20,0.73,9.82,0.01,0.02,-0.05,-0.39,0.44,9.78,-0.07,-0.03,0.19,-0.01,0.33,9.82,-0.05,-0.01,-0.02,1.71,0.30,9.70,3938.4263,10552.3623,0.14
228551344,-0.06,0.00,0.02,-0.43,0.53,9.75,-0.05,-0.00,0.00,-0.20,0.74,9.82,0.00,0.02,-0.05,-0.35,0.44,9.81,-0.08,-0.03,0.18,-0.01,0.35,9.78,-0.06,-0.00,-0.01,1.75,0.30,9.64,3938.4263,10552.3623,0.14
228557183,-0.07,0.00,0.02,-0.38,0.49,9.75,-0.06,-0.00,0.00,-0.21,0.72,9.79,-0.00,0.02,-0.04,-0.38,0.44,9.81,-0.09,-0.03,0.19,-0.03,0.35,9.84,-0.07,-0.00,-0.01,1.68,0.23,9.65,3938.4263,10552.3623,0.14
228563040,-0.09,0.00,0.02,-0.38,0.55,9.78,-0.07,-0.01,0.00,-0.21,0.73,9.75,-0.02,0.02,-0.05,-0.36,0.41,9.70,-0.10,-0.03,0.18,-0.01,0.33,9.72,-0.08,-0.00,-0.01,1.65,0.27,9.64,3938.4263,10552.3623,0.14
228568824,-0.10,0.00,0.01,-0.38,0.48,9.70,-0.10,-0.01,0.00,-0.19,0.68,9.69,-0.03,0.02,-0.05,-0.33,0.50,9.65,-0.12,-0.03,0.19,-0.06,0.39,9.77,-0.10,-0.01,-0.01,1.75,0.32,9.66,3938.4263,10552.3623,0.14
228574599,-0.13,0.00,0.02,-0.43,0.48,9.58,-0.11,-0.01,0.00,-0.23,0.78,9.56,-0.05,0.02,-0.05,-0.34,0.59,9.66,-0.14,-0.03,0.19,-0.03,0.48,9.85,-0.12,-0.01,0.00,1.74,0.20,9.69,3938.4263,10552.3623,0.14
228580388,-0.14,0.00,0.02,-0.40,0.53,9.69,-0.13,-0.00,0.01,-0.17,0.68,9.65,-0.07,0.02,-0.05,-0.35,0.43,9.70,-0.16,-0.03,0.19,-0.02,0.31,9.81,-0.14,-0.01,0.00,1.69,0.22,9.64,3938.4263,10552.3623,0.14
228586186,-0.14,0.00,0.02,-0.35,0.45,9.81,-0.14,-0.00,0.00,-0.16,0.64,9.88,-0.08,0.02,-0.04,-0.35,0.39,9.82,-0.16,-0.02,0.19,-0.01,0.31,9.89,-0.14,-0.00,0.00,1.69,0.26,9.67,3938.4263,10552.3623,0.14
228592024,-0.14,-0.00,0.01,-0.31,0.51,9.65,-0.14,-0.00,0.01,-0.09,0.70,9.92,-0.07,0.02,-0.05,-0.25,0.47,10.10,-0.16,-0.02,0.19,0.13,0.27,9.80,-0.14,0.00,0.00,1.81,0.11,9.65,3938.4263,10552.3623,0.14
228597925,-0.14,0.00,0.01,-0.37,0.36,9.97,-0.13,-0.00,0.00,-0.15,0.63,9.85,-0.07,0.02,-0.05,-0.34,0.44,9.74,-0.16,-0.02,0.19,0.00,0.28,10.06,-0.13,0.00,0.00,1.76,0.12,9.94,3938.4263,10552.3623,0.14
228603521,-0.12,0.00,0.02,-0.40,0.41,9.92,-0.12,-0.00,0.00,-0.19,0.63,9.92,-0.06,0.02,-0.04,-0.36,0.35,9.98,-0.14,-0.03,0.19,-0.01,0.21,10.06,-0.12,-0.00,0.00,1.75,0.07,9.95,3938.4263,10552.3623,0.14
228609108,-0.11,0.00,0.02,-0.42,0.50,9.63,-0.10,-0.01,0.01,-0.18,0.67,9.87,-0.04,0.02,-0.05,-0.32,0.38,10.07,-0.13,-0.03,0.19,0.02,0.23,10.07,-0.10,-0.00,0.00,1.80,0.03,9.95,3938.4263,10552.3623,0.14
228614640,-0.11,0.00,0.01,-0.42,0.44,9.86,-0.10,-0.01,0.01,-0.18,0.67,9.83,-0.04,0.02,-0.04,-0.34,0.41,9.75,-0.13,-0.03,0.18,-0.03,0.29,10.08,-0.11,-0.01,-0.00,1.75,0.19,9.92,3938.4263,10552.3623,0.14
228621292,-0.11,0.00,0.02,-0.40,0.39,9.85,-0.10,-0.01,0.00,-0.13,0.58,9.90,-0.04,0.01,-0.05,-0.33,0.37,9.92,-0.12,-0.03,0.19,0.01,0.21,9.95,-0.10,-0.01,-0.00,1.77,0.11,9.72,3938.4263,10552.3623,0.14
228628410,-0.11,0.00,0.02,-0.44,0.40,9.85,-0.10,-0.01,0.01,-0.21,0.64,9.84,-0.04,0.02,-0.05,-0.33,0.31,9.82,-0.12,-0.03,0.19,-0.05,0.19,9.85,-0.10,-0.00,-0.00,1.70,0.14,9.60,3938.4263,10552.3623,0.14
228633982,-0.10,0.00,0.02,-0.35,0.43,9.88,-0.10,-0.00,0.00,-0.08,0.72,9.93,-0.04,0.02,-0.05,-0.18,0.40,9.82,-0.12,-0.02,0.18,0.15,0.25,9.85,-0.10,0.00,-0.00,1.91,0.05,9.64,3938.4263,10552.3623,0.14
228639546,-0.10,0.00,0.02,-0.45,0.33,9.90,-0.09,-0.01,0.01,-0.20,0.60,9.95,-0.03,0.02,-0.05,-0.37,0.28,9.85,-0.12,-0.02,0.19,-0.08,0.17,9.99,-0.09,0.00,-0.00,1.75,0.03,9.89,3938.4263,10552.3623,0.14
228645451,-0.09,0.00,0.02,-0.39,0.36,9.96,-0.08,-0.00,0.01,-0.20,0.52,9.94,-0.02,0.02,-0.04,-0.38,0.30,9.88,-0.10,-0.03,0.19,-0.06,0.20,10.01,-0.08,0.00,-0.01,1.73,0.17,9.79,3938.4263,10552.3623,0.14
228651337,-0.08,0.00,0.02,-0.42,0.40,9.86,-0.07,-0.01,0.01,-0.21,0.55,9.94,-0.01,0.01,-0.04,-0.38,0.28,9.96,-0.09,-0.03,0.19,-0.02,0.13,9.84,-0.07,-0.00,-0.01,1.72,-0.02,9.86,3938.4263,10552.3623,0.14
228657184,-0.07,0.00,0.02,-0.44,0.35,9.92,-0.06,-0.01,0.01,-0.20,0.53,9.98,0.00,0.02,-0.04,-0.34,0.33,10.04,-0.08,-0.03,0.19,-0.02,0.17,10.05,-0.06,-0.01,-0.01,1.72,0.04,9.88,3938.4263,10552.3623,0.14
228662929,-0.05,0.00,0.02,-0.44,0.35,9.93,-0.04,-0.01,0.00,-0.19,0.57,9.92,0.02,0.02,-0.04,-0.33,0.29,9.88,-0.06,-0.03,0.18,-0.03,0.16,9.94,-0.04,-0.00,-0.02,1.70,0.06,9.79,3938.4263,10552.3623,0.14
228668659,-0.04,0.00,0.02,-0.41,0.39,9.85,-0.04,-0.00,0.00,-0.18,0.58,9.90,0.03,0.02,-0.05,-0.36,0.31,9.83,-0.06,-0.03,0.18,-0.03,0.20,9.90,-0.04,-0.00,-0.01,1.71,0.11,9.72,3938.4263,10552.3623,0.14
228674420,-0.03,0.00,0.02,-0.42,0.37,9.89,-0.02,-0.00,0.00,-0.19,0.57,9.91,0.03,0.02,-0.05,-0.37,0.26,9.91,-0.05,-0.03,0.18,-0.03,0.14,9.96,-0.03,0.00,-0.02,1.73,0.05,9.73,3938.4263,10552.3623,0.14
228680269,-0.02,0.00,0.02,-0.42,0.34,9.86,-0.01,-0.00,0.00,-0.18,0.56,9.89,0.04,0.02,-0.04,-0.34,0.33,9.86,-0.04,-0.03,0.18,-0.03,0.15,9.95,-0.02,0.00,-0.02,1.77,0.09,9.79,3938.4263,10552.3623,0.14
228686141,-0.01,0.00,0.02,-0.42,0.35,9.87,-0.01,-0.00,0.00,-0.20,0.56,9.91,0.05,0.02,-0.04,-0.40,0.31,9.89,-0.03,-0.03,0.18,-0.03,0.18,9.93,-0.02,0.00,-0.02,1.76,0.05,9.82,3938.4263,10552.3623,0.14
228691997,-0.01,0.01,0.02,-0.45,0.39,9.86,-0.00,-0.00,0.00,-0.17,0.51,9.87,0.06,0.02,-0.04,-0.34,0.29,9.92,-0.03,-0.03,0.18,-0.04,0.18,9.94,-0.00,-0.00,-0.02,1.74,0.07,9.80,3938.4263,10552.3623,0.14
228697855,-0.00,0.00,0.02,-0.42,0.34,9.84,0.00,-0.01,0.01,-0.21,0.59,9.84,0.06,0.02,-0.05,-0.38,0.31,9.82,-0.02,-0.03,0.19,-0.02,0.21,9.92,-0.00,0.00,-0.03,1.74,0.12,9.74,3938.4263,10552.3623,0.14
228703726,0.00,0.00,0.02,-0.42,0.36,9.86,0.01,-0.01,0.00,-0.19,0.55,9.90,0.07,0.02,-0.04,-0.33,0.26,9.84,-0.02,-0.03,0.18,-0.02,0.14,9.93,0.00,-0.00,-0.02,1.71,0.05,9.70,3938.4263,10552.3623,0.14
228709546,-0.00,0.00,0.02,-0.47,0.39,9.85,0.01,-0.01,0.00,-0.22,0.56,9.86,0.07,0.02,-0.04,-0.40,0.32,9.82,-0.02,-0.03,0.18,-0.08,0.21,9.89,0.00,0.00,-0.02,1.72,0.10,9.72,3938.4263,10552.3623,0.14
228715284,-0.00,0.00,0.02,-0.42,0.41,9.78,0.00,-0.00,0.00,-0.17,0.58,9.84,0.07,0.02,-0.04,-0.38,0.37,9.82,-0.02,-0.03,0.19,-0.01,0.20,9.87,0.00,0.00,-0.03,1.71,0.14,9.73,3938.4263,10552.3623,0.14
228721061,-0.01,0.00,0.02,-0.40,0.35,9.82,0.00,-0.01,0.00,-0.22,0.55,9.82,0.06,0.02,-0.04,-0.36,0.29,9.86,-0.02,-0.03,0.18,-0.04,0.16,9.88,-0.00,0.00,-0.02,1.75,0.10,9.74,3938.4263,10552.3623,0.14
228726628,-0.01,0.00,0.02,-0.41,0.41,9.78,0.00,-0.01,0.00,-0.17,0.58,9.83,0.06,0.02,-0.04,-0.34,0.34,9.82,-0.02,-0.03,0.18,-0.04,0.17,9.95,-0.00,0.00,-0.02,1.73,0.07,9.78,3938.4263,10552.3623,0.14
228732258,-0.01,0.00,0.02,-0.40,0.42,9.78,-0.00,-0.00,0.01,-0.22,0.61,9.82,0.06,0.02,-0.05,-0.36,0.31,9.80,-0.03,-0.03,0.18,-0.03,0.19,9.89,-0.01,-0.00,-0.02,1.73,0.09,9.76,3938.4263,10552.3623,0.14
228737894,-0.02,0.00,0.02,-0.46,0.37,9.77,-0.01,-0.01,0.00,-0.19,0.57,9.85,0.05,0.02,-0.04,-0.34,0.36,9.82,-0.03,-0.03,0.18,-0.04,0.23,9.87,-0.01,-0.00,-0.02,1.70,0.13,9.71,3938.4263,10552.3623,0.14
228744550,-0.02,0.00,0.02,-0.41,0.37,9.80,-0.01,-0.01,0.00,-0.19,0.61,9.81,0.05,0.02,-0.04,-0.30,0.36,9.80,-0.04,-0.03,0.18,-0.03,0.24,9.87,-0.02,0.00,-0.02,1.71,0.13,9.73,3938.4263,10552.3623,0.14
228750064,-0.03,0.00,0.02,-0.40,0.38,9.79,-0.02,-0.00,0.00,-0.20,0.63,9.81,0.04,0.02,-0.05,-0.35,0.32,9.78,-0.04,-0.03,0.18,-0.01,0.25,9.84,-0.02,-0.00,-0.02,1.73,0.14,9.72,3938.4263,10552.3623,0.14
228755581,-0.03,0.00,0.02,-0.41,0.39,9.77,-0.02,-0.01,0.00,-0.19,0.63,9.80,0.04,0.02,-0.04,-0.31,0.33,9.81,-0.05,-0.03,0.18,-0.03,0.21,9.89,-0.03,-0.00,-0.02,1.71,0.12,9.69,3938.4263,10552.3623,0.14
228761362,-0.04,0.00,0.02,-0.41,0.43,9.80,-0.03,-0.00,0.00,-0.19,0.60,9.80,0.03,0.02,-0.04,-0.35,0.34,9.80,-0.05,-0.03,0.19,-0.03,0.24,9.84,-0.03,-0.00,-0.02,1.73,0.12,9.74,3938.4263,10552.3623,0.14
228767154,-0.05,0.00,0.02,-0.44,0.41,9.77,-0.04,-0.01,0.01,-0.20,0.60,9.84,0.02,0.02,-0.05,-0.34,0.34,9.78,-0.06,-0.03,0.18,-0.01,0.22,9.87,-0.04,-0.00,-0.02,1.71,0.10,9.78,3938.4263,10552.3623,0.14
228772990,-0.05,0.00,0.02,-0.37,0.39,9.79,-0.05,-0.00,0.00,-0.20,0.62,9.85,0.02,0.02,-0.05,-0.35,0.35,9.81,-0.06,-0.03,0.18,-0.02,0.21,9.86,-0.05,-0.00,-0.01,1.72,0.13,9.72,3938.4263,10552.3623,0.14
228778907,-0.05,0.00,0.02,-0.42,0.38,9.82,-0.05,-0.00,0.00,-0.25,0.63,9.85,0.01,0.02,-0.04,-0.33,0.33,9.82,-0.07,-0.03,0.18,-0.08,0.18,9.87,-0.05,-0.00,-0.01,1.73,0.14,9.74,3938.4263,10552.3623,0.14
228784381,-0.05,0.00,0.02,-0.41,0.40,9.83,-0.05,-0.01,0.00,-0.20,0.56,9.88,0.01,0.02,-0.04,-0.35,0.28,9.85,-0.07,-0.02,0.18,-0.06,0.19,9.88,-0.05,0.00,-0.01,1.70,0.09,9.71,3938.4263,10552.3623,0.14
228790619,-0.05,0.00,0.02,-0.44,0.35,9.83,-0.04,-0.00,0.00,-0.23,0.54,9.84,0.02,0.02,-0.05,-0.36,0.32,9.82,-0.07,-0.03,0.19,-0.06,0.20,9.91,-0.05,0.00,-0.01,1.70,0.10,9.78,3938.4263,10552.3623,0.14
228796441,-0.05,0.00,0.02,-0.45,0.37,9.83,-0.05,-0.01,0.00,-0.18,0.60,9.84,0.01,0.02,-0.04,-0.36,0.31,9.81,-0.07,-0.03,0.19,-0.04,0.19,9.88,-0.05,-0.00,-0.01,1.72,0.12,9.79,3938.4263,10552.3623,0.14
228802167,-0.05,0.00,0.02,-0.39,0.40,9.83,-0.05,-0.00,0.00,-0.20,0.57,9.87,0.01,0.02,-0.05,-0.36,0.28,9.83,-0.07,-0.03,0.19,-0.05,0.16,9.90,-0.05,-0.00,-0.01,1.71,0.08,9.75,3938.4263,10552.3623,0.14
228809689,-0.05,0.00,0.02,-0.41,0.43,9.80,-0.04,-0.00,0.00,-0.17,0.55,9.88,0.02,0.02,-0.05,-0.34,0.25,9.84,-0.06,-0.03,0.18,-0.02,0.19,9.87,-0.05,-0.00,-0.01,1.73,0.08,9.68,3938.4263,10552.3623,0.14
228815405,-0.05,0.00,0.02,-0.40,0.36,9.85,-0.04,-0.00,0.00,-0.23,0.57,9.87,0.02,0.02,-0.04,-0.36,0.31,9.86,-0.07,-0.03,0.18,-0.01,0.18,9.90,-0.05,0.00,-0.01,1.72,0.14,9.73,3938.4263,10552.3623,0.14
228821247,-0.05,0.00,0.02,-0.40,0.36,9.82,-0.04,-0.00,0.00,-0.17,0.55,9.89,0.02,0.02,-0.04,-0.33,0.34,9.85,-0.07,-0.02,0.18,-0.03,0.20,9.91,-0.05,0.00,-0.01,1.71,0.08,9.74,3938.4263,10552.3623,0.14
228827119,-0.04,0.01,0.02,-0.43,0.33,9.83,-0.04,-0.00,0.01,-0.19,0.53,9.87,0.02,0.02,-0.05,-0.34,0.30,9.86,-0.06,-0.03,0.18,-0.01,0.20,9.90,-0.04,0.00,-0.01,1.76,0.08,9.81,3938.4263,10552.3623,0.14
228832998,-0.04,0.01,0.02,-0.40,0.33,9.85,-0.03,-0.00,0.00,-0.23,0.57,9.87,0.03,0.02,-0.04,-0.35,0.33,9.91,-0.06,-0.03,0.18,0.00,0.18,9.96,-0.04,-0.00,-0.02,1.75,0.08,9.78,3938.4263,10552.3623,0.14
228838876,-0.03,0.00,0.02,-0.41,0.32,9.87,-0.03,-0.00,0.00,-0.22,0.57,9.88,0.03,0.02,-0.04,-0.34,0.30,9.89,-0.05,-0.03,0.18,-0.01,0.18,9.91,-0.03,-0.00,-0.02,1.71,0.07,9.80,3938.4263,10552.3623,0.14
228844432,-0.03,0.00,0.02,-0.40,0.33,9.89,-0.02,-0.00,0.00,-0.17,0.57,9.89,0.04,0.02,-0.04,-0.35,0.23,9.89,-0.05,-0.03,0.18,-0.03,0.11,9.94,-0.02,-0.00,-0.02,1.71,0.02,9.76,3938.4263,10552.3623,0.14
228849954,-0.02,0.00,0.02,-0.43,0.34,9.86,-0.02,-0.01,0.01,-0.21,0.54,9.87,0.05,0.02,-0.04,-0.34,0.24,9.85,-0.04,-0.03,0.18,-0.04,0.14,9.95,-0.02,-0.00,-0.02,1.75,0.06,9.80,3938.4263,10552.3623,0.14
228855447,-0.02,0.00,0.02,-0.40,0.33,9.86,-0.01,-0.01,0.00,-0.17,0.51,9.86,0.05,0.02,-0.04,-0.34,0.23,9.89,-0.04,-0.03,0.18,-0.07,0.13,9.92,-0.02,-0.00,-0.02,1.71,0.02,9.78,3938.4263,10552.3623,0.14
228862132,-0.01,0.00,0.02,-0.34,0.34,9.84,-0.01,-0.00,0.00,-0.21,0.54,9.91,0.06,0.02,-0.04,-0.36,0.26,9.88,-0.03,-0.03,0.18,-0.03,0.12,9.93,-0.01,0.00,-0.02,1.72,0.00,9.78,3938.4263,10552.3623,0.14
228867691,-0.00,0.00,0.02,-0.40,0.28,9.85,-0.00,-0.00,0.00,-0.16,0.52,9.84,0.06,0.02,-0.05,-0.35,0.24,9.89,-0.02,-0.03,0.18,-0.02,0.14,9.94,-0.00,0.00,-0.02,1.71,0.03,9.80,3938.4263,10552.3623,0.14
228873253,0.00,0.00,0.02,-0.41,0.35,9.81,0.01,-0.00,0.00,-0.18,0.57,9.88,0.06,0.02,-0.04,-0.32,0.29,9.86,-0.02,-0.03,0.18,-0.04,0.10,9.95,0.00,-0.00,-0.02,1.71,-0.01,9.74,3938.4263,10552.3623,0.14
228878826,0.01,0.00,0.02,-0.41,0.31,9.83,0.01,-0.00,0.00,-0.19,0.55,9.89,0.07,0.02,-0.05,-0.33,0.26,9.82,-0.01,-0.03,0.19,-0.04,0.14,9.94,0.01,0.00,-0.03,1.71,0.03,9.77,3938.4263,10552.3623,0.14
228884721,0.01,0.00,0.02,-0.41,0.32,9.85,0.02,-0.01,0.00,-0.18,0.53,9.83,0.07,0.02,-0.04,-0.33,0.30,9.84,-0.01,-0.03,0.18,-0.04,0.15,9.89,0.01,0.00,-0.03,1.73,0.08,9.78,3938.4263,10552.3623,0.14
228890526,0.01,0.00,0.02,-0.40,0.29,9.81,0.01,-0.01,0.00,-0.21,0.53,9.83,0.07,0.02,-0.04,-0.33,0.27,9.85,-0.01,-0.03,0.18,-0.06,0.14,9.90,0.01,0.00,-0.03,1.72,0.07,9.76,3938.4263,10552.3623,0.14
228896255,0.01,0.00,0.02,-0.38,0.31,9.82,0.02,-0.00,0.00,-0.21,0.56,9.89,0.07,0.02,-0.05,-0.31,0.28,9.81,-0.01,-0.03,0.18,-0.04,0.16,9.89,0.01,0.00,-0.02,1.73,0.09,9.77,3938.4263,10552.3623,0.14
228901978,0.01,0.00,0.02,-0.43,0.35,9.84,0.01,-0.00,0.00,-0.18,0.56,9.85,0.07,0.02,-0.04,-0.30,0.30,9.82,-0.01,-0.03,0.19,-0.01,0.13,9.93,0.01,0.00,-0.03,1.73,0.07,9.74,3938.4263,10552.3623,0.14
228907781,0.00,0.00,0.02,-0.43,0.36,9.78,0.01,-0.01,0.00,-0.17,0.54,9.82,0.07,0.02,-0.04,-0.37,0.30,9.82,-0.01,-0.03,0.18,-0.03,0.14,9.90,0.01,-0.00,-0.03,1.71,0.08,9.72,3938.4263,10552.3623,0.14
228913637,-0.00,0.01,0.02,-0.40,0.35,9.78,0.00,-0.00,0.00,-0.17,0.55,9.83,0.06,0.02,-0.05,-0.30,0.29,9.78,-0.02,-0.03,0.18,-0.05,0.14,9.87,-0.00,0.00,-0.03,1.74,0.09,9.73,3938.4263,10552.3623,0.14
228919456,-0.01,0.00,0.02,-0.40,0.38,9.81,-0.00,-0.00,0.00,-0.21,0.57,9.83,0.06,0.02,-0.04,-0.36,0.29,9.81,-0.02,-0.03,0.18,-0.01,0.15,9.86,-0.01,-0.00,-0.03,1.70,0.05,9.74,3938.4263,10552.3623,0.14
228925226,-0.01,0.00,0.02,-0.40,0.34,9.80,-0.00,-0.00,0.00,-0.19,0.53,9.84,0.06,0.02,-0.05,-0.38,0.27,9.82,-0.03,-0.03,0.18,-0.07,0.15,9.88,-0.01,0.00,-0.02,1.71,0.04,9.74,3938.4263,10552.3623,0.14
228930999,-0.01,0.00,0.02,-0.42,0.36,9.85,-0.00,-0.00,0.00,-0.18,0.55,9.86,0.06,0.02,-0.05,-0.37,0.27,9.86,-0.03,-0.03,0.18,-0.03,0.18,9.89,-0.01,0.00,-0.02,1.72,0.08,9.71,3938.4263,10552.3623,0.14
228936759,-0.01,0.00,0.02,-0.42,0.27,9.85,-0.00,-0.00,0.00,-0.17,0.56,9.90,0.06,0.02,-0.05,-0.33,0.28,9.84,-0.03,-0.03,0.18,-0.02,0.15,9.93,-0.01,-0.00,-0.02,1.74,0.07,9.77,3938.4263,10552.3623,0.14
228942560,-0.00,0.00,0.02,-0.42,0.32,9.86,-0.00,-0.00,0.00,-0.17,0.57,9.87,0.06,0.02,-0.05,-0.33,0.28,9.82,-0.02,-0.03,0.18,0.00,0.13,9.92,-0.00,0.00,-0.02,1.74,0.04,9.74,3938.4263,10552.3623,0.14
228948308,-0.00,0.01,0.02,-0.40,0.32,9.85,0.01,-0.01,0.00,-0.18,0.54,9.90,0.06,0.02,-0.05,-0.35,0.32,9.84,-0.02,-0.03,0.18,-0.05,0.19,9.94,-0.00,0.00,-0.03,1.72,0.06,9.77,3938.4263,10552.3623,0.14
228954101,-0.00,0.00,0.02,-0.40,0.33,9.84,0.00,-0.00,0.00,-0.19,0.55,9.85,0.06,0.02,-0.05,-0.34,0.25,9.82,-0.02,-0.03,0.18,-0.04,0.16,9.92,-0.00,-0.00,-0.03,1.73,0.06,9.75,3938.4263,10552.3623,0.14
228959970,0.00,0.00,0.02,-0.44,0.32,9.81,0.01,-0.01,0.00,-0.20,0.57,9.85,0.07,0.02,-0.04,-0.34,0.32,9.85,-0.02,-0.03,0.18,-0.04,0.14,9.89,0.00,-0.00,-0.03,1.72,0.12,9.74,3938.4263,10552.3623,0.14
228965566,0.00,0.00,0.02,-0.39,0.36,9.80,0.00,-0.00,0.00,-0.20,0.54,9.84,0.06,0.02,-0.04,-0.35,0.32,9.82,-0.02,-0.03,0.18,-0.02,0.19,9.87,-0.00,-0.00,-0.02,1.70,0.11,9.74,3938.4263,10552.3623,0.14
228971139,-0.00,0.00,0.02,-0.39,0.37,9.78,0.00,-0.00,0.00,-0.22,0.60,9.83,0.06,0.02,-0.04,-0.34,0.36,9.82,-0.02,-0.03,0.18,-0.03,0.15,9.87,-0.00,0.00,-0.03,1.72,0.09,9.71,3938.4263,10552.3623,0.14
228976719,-0.01,0.00,0.02,-0.42,0.35,9.80,-0.00,-0.01,0.00,-0.19,0.53,9.84,0.06,0.02,-0.04,-0.31,0.26,9.82,-0.03,-0.03,0.18,-0.04,0.15,9.88,-0.01,0.00,-0.03,1.74,0.10,9.76,3938.4263,10552.3623,0.14
228989755,-0.02,0.00,0.02,-0.38,0.36,9.78,-0.02,-0.00,0.00,-0.14,0.59,9.81,0.05,0.02,-0.05,-0.35,0.32,9.80,-0.04,-0.03,0.18,-0.02,0.16,9.88,-0.02,-0.00,-0.02,1.71,0.11,9.71,3938.4263,10552.3623,0.14
228995285,-0.03,0.00,0.02,-0.40,0.39,9.81,-0.02,-0.00,0.00,-0.18,0.58,9.85,0.04,0.02,-0.05,-0.36,0.30,9.82,-0.04,-0.03,0.18,-0.01,0.16,9.90,-0.02,-0.00,-0.02,1.72,0.07,9.71,3938.4263,10552.3623,0.14
229000806,-0.03,0.00,0.02,-0.43,0.33,9.83,-0.02,-0.00,0.00,-0.20,0.56,9.86,0.04,0.02,-0.05,-0.32,0.33,9.81,-0.04,-0.03,0.18,-0.01,0.19,9.89,-0.02,-0.00,-0.02,1.74,0.11,9.71,3938.4263,10552.3623,0.14
229006716,-0.03,0.00,0.02,-0.42,0.32,9.85,-0.02,-0.01,0.00,-0.19,0.57,9.89,0.04,0.02,-0.05,-0.31,0.30,9.85,-0.04,-0.03,0.18,-0.05,0.20,9.91,-0.02,0.00,-0.02,1.77,0.12,9.75,3938.4263,10552.3623,0.14
229012601,-0.02,0.00,0.02,-0.38,0.33,9.89,-0.01,-0.00,0.00,-0.21,0.57,9.87,0.05,0.02,-0.05,-0.32,0.29,9.89,-0.04,-0.02,0.18,-0.02,0.17,9.94,-0.02,0.00,-0.02,1.75,0.09,9.79,3938.4263,10552.3623,0.14
229018495,-0.01,0.01,0.02,-0.44,0.35,9.84,-0.01,-0.01,0.00,-0.22,0.56,9.88,0.05,0.02,-0.04,-0.35,0.32,9.86,-0.03,-0.03,0.18,-0.01,0.13,9.94,-0.01,0.00,-0.02,1.72,0.08,9.85,3938.4263,10552.3623,0.14
229024367,-0.01,0.00,0.02,-0.42,0.34,9.87,0.00,-0.01,0.00,-0.22,0.55,9.89,0.06,0.02,-0.04,-0.37,0.32,9.87,-0.02,-0.02,0.18,-0.08,0.16,9.94,-0.00,-0.00,-0.03,1.77,0.02,9.80,3938.4263,10552.3623,0.14
229030130,0.00,0.00,0.02,-0.40,0.36,9.86,0.00,-0.00,0.00,-0.19,0.57,9.89,0.07,0.02,-0.05,-0.35,0.30,9.88,-0.02,-0.03,0.18,-0.04,0.19,9.94,0.00,0.00,-0.02,1.71,0.03,9.79,3938.4263,10552.3623,0.14
229035898,0.01,0.00,0.02,-0.41,0.37,9.85,0.01,-0.01,0.00,-0.21,0.58,9.94,0.07,0.02,-0.05,-0.31,0.28,9.82,-0.01,-0.03,0.18,-0.03,0.18,9.89,0.00,0.00,-0.03,1.74,0.05,9.74,3938.4263,10552.3623,0.14
229041639,0.02,0.00,0.02,-0.42,0.35,9.86,0.02,-0.00,-0.00,-0.20,0.57,9.92,0.08,0.02,-0.04,-0.32,0.31,9.87,-0.00,-0.03,0.18,-0.01,0.19,9.88,0.01,0.00,-0.03,1.74,0.09,9.74,3938.4263,10552.3623,0.14
229047442,0.02,0.01,0.02,-0.38,0.35,9.83,0.03,-0.00,0.00,-0.22,0.58,9.87,0.09,0.02,-0.04,-0.38,0.29,9.88,0.00,-0.02,0.18,-0.06,0.14,9.96,0.02,0.01,-0.03,1.71,0.05,9.82,3938.4263,10552.3623,0.14
229053324,0.03,0.00,0.02,-0.42,0.35,9.82,0.03,-0.00,0.00,-0.19,0.58,9.84,0.09,0.02,-0.04,-0.37,0.31,9.88,0.00,-0.02,0.18,-0.04,0.17,9.95,0.03,0.00,-0.03,1.74,0.07,9.83,3938.4263,10552.3623,0.14
229059192,0.03,0.00,0.02,-0.45,0.39,9.79,0.03,-0.00,0.00,-0.20,0.57,9.85,0.09,0.02,-0.04,-0.34,0.29,9.79,0.01,-0.02,0.18,-0.05,0.19,9.97,0.03,0.00,-0.03,1.75,0.11,9.81,3938.4263,10552.3623,0.14
229065046,0.03,0.00,0.02,-0.39,0.36,9.80,0.03,-0.01,0.00,-0.17,0.57,9.84,0.09,0.02,-0.04,-0.31,0.30,9.83,0.01,-0.03,0.18,-0.01,0.18,9.90,0.03,-0.00,-0.03,1.76,0.09,9.73,3938.4263,10552.3623,0.14
229070938,0.03,0.00,0.02,-0.41,0.34,9.84,0.03,-0.01,0.00,-0.19,0.58,9.87,0.09,0.02,-0.05,-0.34,0.31,9.82,0.01,-0.03,0.18,-0.01,0.18,9.88,0.03,-0.00,-0.03,1.75,0.11,9.72,3938.4263,10552.3623,0.14
229076637,0.03,0.00,0.02,-0.41,0.33,9.85,0.04,-0.01,0.00,-0.22,0.56,9.90,0.10,0.02,-0.05,-0.35,0.29,9.89,0.01,-0.02,0.18,0.00,0.15,9.87,0.03,0.00,-0.03,1.74,0.01,9.74,3938.4263,10552.3623,0.14
229082395,0.04,0.01,0.02,-0.43,0.35,9.83,0.04,-0.01,0.00,-0.21,0.57,9.92,0.10,0.02,-0.04,-0.34,0.32,9.87,0.02,-0.02,0.18,-0.05,0.18,9.92,0.04,0.00,-0.03,1.71,0.10,9.81,3938.4263,10552.3623,0.14
229088174,0.05,0.00,0.02,-0.41,0.30,9.89,0.05,-0.01,0.00,-0.21,0.55,9.95,0.11,0.02,-0.04,-0.33,0.27,9.92,0.02,-0.02,0.18,-0.06,0.18,9.94,0.04,0.00,-0.03,1.70,0.08,9.82,3938.4263,10552.3623,0.14
229093750,0.05,0.00,0.02,-0.44,0.35,9.83,0.05,-0.00,0.00,-0.20,0.59,9.94,0.11,0.02,-0.05,-0.36,0.32,9.88,0.03,-0.03,0.18,-0.03,0.18,9.94,0.05,0.00,-0.04,1.68,0.05,9.88,3938.4263,10552.3623,0.14
229099387,0.06,0.00,0.02,-0.40,0.39,9.83,0.06,-0.00,0.00,-0.18,0.60,9.86,0.12,0.02,-0.04,-0.32,0.36,9.82,0.04,-0.03,0.18,-0.05,0.21,9.94,0.05,0.00,-0.04,1.73,0.13,9.82,3938.4263,10552.3623,0.14
229104886,0.06,0.00,0.02,-0.41,0.40,9.83,0.06,-0.01,0.00,-0.16,0.58,9.84,0.12,0.02,-0.05,-0.31,0.33,9.82,0.04,-0.03,0.18,-0.01,0.23,9.91,0.06,0.00,-0.04,1.74,0.14,9.74,3938.4263,10552.3623,0.14
229111547,0.06,0.00,0.02,-0.41,0.29,9.85,0.06,-0.01,0.00,-0.20,0.52,9.84,0.12,0.02,-0.04,-0.27,0.25,9.83,0.04,-0.03,0.18,0.02,0.18,9.87,0.06,0.00,-0.04,1.78,0.16,9.63,3938.4263,10552.3623,0.14
229117076,0.06,0.00,0.02,-0.43,0.40,9.80,0.06,-0.00,0.00,-0.21,0.57,9.83,0.12,0.02,-0.04,-0.32,0.30,9.82,0.04,-0.02,0.18,-0.05,0.19,9.88,0.06,0.00,-0.04,1.73,0.07,9.74,3938.4263,10552.3623,0.14
229122538,0.06,0.00,0.02,-0.46,0.44,9.82,0.07,-0.00,0.00,-0.29,0.63,9.88,0.13,0.02,-0.04,-0.42,0.31,9.80,0.04,-0.02,0.18,-0.13,0.16,9.93,0.06,0.01,-0.04,1.65,0.07,9.79,3938.4263,10552.3623,0.14
229128334,0.06,0.00,0.02,-0.40,0.41,9.84,0.07,-0.01,0.00,-0.17,0.58,9.85,0.13,0.02,-0.04,-0.33,0.35,9.83,0.04,-0.02,0.18,-0.01,0.23,9.94,0.06,0.01,-0.04,1.74,0.15,9.83,3938.4263,10552.3623,0.14
229134134,0.06,0.00,0.02,-0.50,0.28,9.92,0.07,-0.00,0.00,-0.29,0.59,9.96,0.13,0.02,-0.04,-0.37,0.37,9.80,0.05,-0.03,0.18,-0.03,0.35,9.68,0.07,0.01,-0.04,1.78,0.25,10.09,3938.4263,10552.3623,0.14
229139969,0.07,0.00,0.02,-0.44,0.39,9.79,0.08,-0.01,0.00,-0.18,0.55,10.04,0.13,0.02,-0.04,-0.33,0.30,10.12,0.05,-0.03,0.18,0.02,0.23,9.85,0.07,0.00,-0.04,1.77,0.12,9.69,3938.4263,10552.3623,0.14
229145891,0.07,0.00,0.02,-0.44,0.43,9.86,0.08,-0.01,0.00,-0.20,0.63,9.85,0.14,0.02,-0.05,-0.36,0.32,9.79,0.05,-0.03,0.18,-0.08,0.26,9.90,0.07,-0.00,-0.04,1.70,0.19,9.77,3938.4263,10552.3623,0.14
229151785,0.07,0.00,0.02,-0.43,0.38,9.83,0.07,-0.00,0.00,-0.21,0.65,9.86,0.13,0.02,-0.05,-0.32,0.36,9.82,0.05,-0.03,0.18,-0.07,0.23,9.94,0.07,0.00,-0.04,1.72,0.19,9.72,3938.4263,10552.3623,0.14
229157669,0.07,0.00,0.02,-0.41,0.42,9.81,0.08,-0.00,0.00,-0.21,0.59,9.86,0.14,0.02,-0.04,-0.37,0.34,9.90,0.05,-0.02,0.18,-0.02,0.23,9.91,0.07,0.01,-0.04,1.74,0.14,9.71,3938.4263,10552.3623,0.14
229163458,0.07,0.00,0.02,-0.38,0.39,9.85,0.08,-0.00,0.00,-0.17,0.68,9.86,0.14,0.02,-0.04,-0.34,0.43,9.82,0.06,-0.02,0.18,0.00,0.29,9.86,0.08,0.01,-0.04,1.73,0.11,9.80,3938.4263,10552.3623,0.14
229170836,0.07,0.00,0.02,-0.46,0.47,9.83,0.08,-0.01,0.00,-0.25,0.72,9.85,0.14,0.02,-0.04,-0.40,0.39,9.85,0.06,-0.02,0.18,-0.06,0.26,9.95,0.07,0.00,-0.04,1.75,0.17,9.83,3938.4263,10552.3623,0.14
229176595,0.07,0.00,0.02,-0.43,0.43,9.85,0.07,-0.01,0.00,-0.21,0.70,9.83,0.14,0.02,-0.05,-0.38,0.46,9.81,0.05,-0.03,0.18,-0.09,0.38,9.76,0.07,0.00,-0.04,1.69,0.21,9.87,3938.4263,10552.3623,0.14
229182364,0.07,0.00,0.02,-0.41,0.41,9.81,0.08,-0.01,0.00,-0.17,0.64,9.96,0.14,0.02,-0.05,-0.34,0.35,10.01,0.06,-0.03,0.18,-0.01,0.20,9.93,0.07,0.00,-0.04,1.71,0.13,9.67,3938.4263,10552.3623,0.14
229188166,0.08,0.00,0.02,-0.39,0.43,9.86,0.08,-0.01,0.00,-0.20,0.61,9.93,0.14,0.02,-0.04,-0.30,0.37,9.91,0.06,-0.03,0.18,-0.01,0.24,9.87,0.08,0.00,-0.04,1.73,0.18,9.73,3938.4263,10552.3623,0.14
229194091,0.08,0.00,0.02,-0.46,0.45,9.85,0.09,-0.00,-0.00,-0.23,0.69,9.89,0.15,0.02,-0.04,-0.37,0.40,9.89,0.06,-0.03,0.18,-0.05,0.29,9.95,0.08,0.00,-0.04,1.70,0.12,9.77,3938.4263,10552.3623,0.14
229199999,0.09,0.00,0.02,-0.41,0.43,9.86,0.10,-0.00,0.00,-0.19,0.66,9.89,0.16,0.02,-0.04,-0.34,0.42,9.92,0.07,-0.03,0.18,-0.04,0.26,9.95,0.09,0.01,-0.04,1.74,0.17,9.80,3938.4263,10552.3623,0.14
229205905,0.11,0.00,0.02,-0.31,0.43,9.87,0.11,-0.00,0.00,-0.12,0.73,9.89,0.17,0.02,-0.04,-0.38,0.70,9.95,0.09,-0.02,0.18,-0.11,0.51,9.96,0.10,0.01,-0.05,1.62,0.00,9.99,3938.4263,10552.3623,0.14
229211708,0.11,0.00,0.02,-0.39,0.44,9.76,0.12,-0.01,0.00,-0.27,0.75,9.81,0.18,0.03,-0.04,-0.38,0.51,9.74,0.09,-0.02,0.18,-0.09,0.37,10.07,0.11,0.00,-0.05,1.78,0.08,10.02,3938.4263,10552.3623,0.14
229217231,0.14,0.00,0.02,-0.44,0.43,9.86,0.14,-0.01,0.00,-0.25,0.57,10.04,0.19,0.03,-0.04,-0.40,0.29,9.91,0.11,-0.03,0.18,-0.05,0.15,10.29,0.12,-0.00,-0.05,1.75,0.09,9.85,3938.4263,10552.3623,0.61
229222775,0.15,-0.00,0.02,-0.42,0.43,10.03,0.15,-0.01,0.00,-0.20,0.67,10.05,0.21,0.03,-0.04,-0.31,0.34,9.97,0.14,-0.03,0.18,-0.04,0.22,9.97,0.16,0.01,-0.05,1.73,0.08,9.81,3938.4263,10552.3623,0.61
229229524,0.16,0.00,0.02,-0.36,0.48,9.85,0.16,-0.01,0.00,-0.19,0.71,9.83,0.22,0.02,-0.04,-0.33,0.45,9.82,0.14,-0.03,0.18,-0.01,0.34,9.82,0.15,-0.00,-0.06,1.74,0.20,9.95,3938.4263,10552.3623,0.61
229235128,0.16,0.00,0.03,-0.46,0.50,9.92,0.16,-0.01,0.00,-0.26,0.67,9.96,0.22,0.02,-0.04,-0.40,0.37,10.00,0.14,-0.03,0.18,-0.10,0.35,10.00,0.15,-0.00,-0.06,1.64,0.28,9.78,3938.4263,10552.3623,0.61
229240704,0.16,0.00,0.02,-0.45,0.53,9.82,0.17,-0.01,0.00,-0.17,0.75,9.91,0.23,0.02,-0.04,-0.37,0.43,9.92,0.15,-0.03,0.18,-0.03,0.34,10.01,0.17,0.00,-0.06,1.71,0.20,9.70,3938.4263,10552.3623,0.61
229246289,0.17,0.00,0.02,-0.46,0.48,9.63,0.17,-0.01,-0.00,-0.24,0.56,9.80,0.23,0.02,-0.04,-0.24,0.30,9.69,0.15,-0.03,0.18,0.06,0.19,10.04,0.16,0.00,-0.06,1.84,0.38,9.70,3938.4263,10552.3623,0.61
229252123,0.17,0.00,0.02,-0.45,0.55,9.82,0.18,-0.01,0.00,-0.20,0.71,9.74,0.23,0.02,-0.04,-0.39,0.50,9.82,0.15,-0.03,0.18,-0.04,0.35,10.07,0.17,0.01,-0.06,1.72,0.26,9.86,3938.4263,10552.3623,0.61
229257896,0.18,0.00,0.02,-0.48,0.62,9.80,0.18,-0.01,0.00,-0.29,0.81,9.87,0.24,0.02,-0.04,-0.42,0.44,9.90,0.16,-0.03,0.18,-0.14,0.35,9.94,0.17,0.01,-0.06,1.65,0.25,9.88,3938.4263,10552.3623,0.61
229263562,0.19,0.00,0.02,-0.42,0.51,9.88,0.18,-0.01,0.00,-0.21,0.76,9.97,0.24,0.02,-0.04,-0.36,0.50,10.11,0.16,-0.03,0.18,-0.01,0.39,9.98,0.17,-0.00,-0.06,1.72,0.26,9.82,3938.4263,10552.3623,0.61
229269305,0.20,0.00,0.02,-0.46,0.54,9.97,0.20,-0.01,0.00,-0.20,0.73,10.04,0.26,0.02,-0.04,-0.36,0.45,10.03,0.17,-0.03,0.17,-0.06,0.33,9.98,0.19,0.00,-0.07,1.73,0.15,9.92,3938.4263,10552.3623,0.61
229275150,0.21,0.00,0.02,-0.37,0.52,10.07,0.21,-0.01,-0.00,-0.14,0.70,10.11,0.27,0.02,-0.04,-0.29,0.46,9.98,0.19,-0.03,0.18,-0.01,0.39,9.90,0.21,0.00,-0.07,1.77,0.37,10.04,3938.4263,10552.3623,0.61
229281056,0.23,0.00,0.02,-0.46,0.60,9.84,0.23,-0.01,0.00,-0.21,0.81,9.99,0.28,0.02,-0.04,-0.39,0.52,10.13,0.20,-0.04,0.18,-0.06,0.40,10.05,0.21,0.00,-0.07,1.69,0.26,9.85,3938.4263,10552.3623,0.61
229286845,0.24,0.00,0.03,-0.36,0.45,9.91,0.24,-0.01,-0.00,-0.19,0.62,9.71,0.30,0.01,-0.04,-0.40,0.51,10.00,0.22,-0.04,0.18,-0.09,0.46,10.11,0.23,-0.00,-0.07,1.73,0.38,9.97,3938.4263,10552.3623,0.61
229292696,0.25,0.00,0.02,-0.44,0.61,9.89,0.25,-0.01,0.00,-0.18,0.87,9.91,0.31,0.02,-0.04,-0.35,0.57,9.91,0.22,-0.04,0.18,-0.02,0.43,10.04,0.24,-0.00,-0.08,1.78,0.29,9.98,3938.4263,10552.3623,0.61
229298544,0.26,0.00,0.03,-0.44,0.54,9.83,0.26,-0.01,0.00,-0.23,0.83,9.98,0.32,0.02,-0.04,-0.45,0.48,9.95,0.24,-0.04,0.18,-0.11,0.43,9.94,0.25,-0.00,-0.08,1.67,0.43,9.93,3938.4263,10552.3623,0.61
229304287,0.28,0.00,0.03,-0.46,0.65,9.93,0.27,-0.01,0.00,-0.27,0.82,9.93,0.33,0.02,-0.04,-0.40,0.59,10.02,0.25,-0.04,0.18,-0.09,0.49,10.05,0.27,-0.00,-0.08,1.65,0.45,9.65,3938.4263,10552.3623,0.61
229310091,0.29,0.00,0.03,-0.44,0.70,10.02,0.29,-0.01,0.00,-0.19,0.84,10.02,0.35,0.02,-0.04,-0.35,0.61,10.04,0.27,-0.04,0.18,-0.05,0.50,10.00,0.28,0.00,-0.09,1.66,0.37,9.80,3938.4263,10552.3623,0.61
229315861,0.31,-0.00,0.03,-0.44,0.71,9.89,0.31,-0.01,0.00,-0.23,0.97,9.89,0.37,0.02,-0.04,-0.42,0.68,9.83,0.29,-0.04,0.18,-0.04,0.58,9.95,0.31,0.00,-0.09,1.66,0.44,9.88,3938.4263,10552.3623,0.61
229321693,0.32,0.00,0.03,-0.40,0.75,9.83,0.32,-0.01,0.00,-0.21,0.95,9.84,0.38,0.02,-0.04,-0.34,0.75,9.78,0.30,-0.04,0.18,-0.06,0.61,9.83,0.31,-0.00,-0.09,1.67,0.55,9.77,3938.4263,10552.3623,0.61
229327616,0.32,0.00,0.03,-0.40,0.65,9.94,0.32,-0.01,0.00,-0.17,0.89,10.02,0.38,0.02,-0.03,-0.34,0.70,10.05,0.30,-0.04,0.18,0.03,0.56,10.04,0.31,-0.00,-0.09,1.77,0.48,9.54,3938.4263,10552.3623,0.61
229333547,0.33,-0.00,0.03,-0.42,0.71,9.91,0.34,-0.01,0.00,-0.25,0.93,9.87,0.40,0.02,-0.04,-0.44,0.63,9.92,0.32,-0.03,0.18,-0.13,0.51,9.88,0.33,0.01,-0.09,1.61,0.40,9.72,3938.4263,10552.3623,0.61
229339130,0.33,-0.00,0.02,-0.36,0.77,9.72,0.33,-0.01,0.00,-0.12,0.96,9.78,0.40,0.03,-0.03,-0.27,0.75,9.63,0.32,-0.03,0.18,0.07,0.70,9.79,0.33,0.01,-0.09,1.85,0.59,9.86,3938.4263,10552.3623,0.61
229344741,0.33,-0.00,0.03,-0.33,0.81,9.76,0.34,-0.00,0.00,-0.12,1.10,9.86,0.40,0.03,-0.04,-0.36,0.91,9.82,0.31,-0.03,0.18,-0.14,0.84,10.01,0.33,0.00,-0.09,1.66,0.47,9.84,3938.4263,10552.3623,0.61
229353095,0.35,-0.00,0.03,-0.37,0.79,9.77,0.35,-0.01,0.00,-0.13,0.89,9.88,0.41,0.03,-0.04,-0.31,0.59,9.93,0.33,-0.03,0.18,0.01,0.44,9.98,0.34,0.01,-0.09,1.77,0.37,9.86,3938.4263,10552.3623,0.61
229358602,0.35,-0.00,0.03,-0.42,0.82,9.77,0.35,-0.01,0.00,-0.17,0.98,9.73,0.41,0.03,-0.04,-0.37,0.74,9.89,0.33,-0.03,0.18,-0.06,0.59,9.91,0.34,0.01,-0.09,1.73,0.45,9.89,3938.4263,10552.3623,0.61
229364100,0.35,-0.00,0.03,-0.41,0.80,9.94,0.35,-0.01,0.00,-0.14,0.98,9.99,0.41,0.02,-0.04,-0.34,0.81,9.82,0.33,-0.04,0.18,0.03,0.67,10.07,0.34,0.00,-0.09,1.74,0.51,9.97,3938.4263,10552.3623,0.61
229369653,0.36,-0.00,0.03,-0.38,0.80,9.94,0.36,-0.01,0.01,-0.12,1.03,10.01,0.42,0.02,-0.04,-0.32,0.71,10.04,0.34,-0.04,0.18,-0.01,0.58,10.10,0.36,0.01,-0.10,1.81,0.42,9.87,3938.4263,10552.3623,0.61
229375578,0.38,-0.01,0.03,-0.35,0.80,9.88,0.38,-0.01,0.00,-0.09,1.02,9.94,0.45,0.02,-0.04,-0.33,0.71,9.83,0.36,-0.03,0.18,-0.03,0.65,10.10,0.38,0.01,-0.10,1.76,0.51,9.97,3938.4263,10552.3623,0.61
229381243,0.40,-0.01,0.03,-0.42,0.96,9.73,0.41,-0.01,0.00,-0.20,1.13,9.81,0.47,0.02,-0.04,-0.28,0.86,9.98,0.38,-0.04,0.18,0.09,0.66,10.17,0.39,0.01,-0.11,1.94,0.38,10.00,3938.4263,10552.3623,0.61
229387003,0.41,-0.01,0.03,-0.44,1.09,9.65,0.42,-0.01,0.00,-0.28,1.39,9.63,0.48,0.02,-0.04,-0.49,0.98,9.90,0.39,-0.04,0.18,-0.11,0.65,10.10,0.41,0.00,-0.11,1.73,0.43,10.15,3938.4263,10552.3623,0.61
229392808,0.43,-0.01,0.03,-0.24,0.90,9.79,0.43,-0.01,0.00,-0.09,1.12,9.81,0.48,0.02,-0.04,-0.20,0.80,9.91,0.40,-0.04,0.17,0.17,0.71,10.16,0.40,-0.01,-0.11,1.99,0.53,10.02,3938.4263,10552.3623,0.61
229398545,0.44,-0.01,0.03,-0.31,1.04,9.65,0.44,-0.02,0.00,-0.09,1.14,9.84,0.50,0.01,-0.04,-0.19,0.82,9.92,0.42,-0.05,0.18,0.12,0.70,9.92,0.43,-0.00,-0.11,1.87,0.48,9.98,3938.4263,10552.3623,0.61
229404325,0.45,-0.01,0.03,-0.40,0.94,10.00,0.45,-0.02,0.00,-0.12,1.10,9.99,0.51,0.02,-0.04,-0.35,0.83,9.84,0.42,-0.05,0.17,-0.02,0.75,9.96,0.42,-0.01,-0.11,1.72,0.63,9.93,3938.4263,10552.3623,0.61
229410147,0.47,-0.01,0.03,-0.38,0.94,9.89,0.47,-0.02,-0.00,-0.11,1.08,9.90,0.53,0.02,-0.04,-0.30,0.75,10.00,0.45,-0.04,0.17,0.11,0.58,10.27,0.46,-0.00,-0.12,1.91,0.50,9.68,3938.4263,10552.3623,0.61
229415977,0.50,-0.01,0.04,-0.33,0.94,10.07,0.50,-0.02,0.00,-0.07,1.19,9.87,0.56,0.02,-0.03,-0.22,0.94,9.85,0.47,-0.04,0.17,0.07,0.85,10.10,0.48,0.00,-0.12,1.88,0.71,10.00,3938.4263,10552.3623,0.61
229421859,0.53,-0.01,0.03,-0.40,0.94,9.84,0.53,-0.02,-0.00,-0.20,1.17,9.93,0.59,0.02,-0.04,-0.35,0.88,10.04,0.51,-0.04,0.17,-0.05,0.79,10.00,0.52,0.01,-0.13,1.86,0.65,10.37,3938.4263,10552.3623,0.61
229427737,0.56,-0.01,0.03,-0.45,1.06,10.13,0.56,-0.02,0.00,-0.19,1.24,9.93,0.62,0.02,-0.03,-0.44,0.87,10.04,0.53,-0.05,0.17,-0.09,0.79,10.32,0.54,0.00,-0.14,1.73,0.79,10.14,3938.4263,10552.3623,0.61
229433666,0.58,-0.01,0.04,-0.37,1.10,9.93,0.58,-0.02,-0.00,-0.11,1.31,10.10,0.65,0.01,-0.04,-0.30,1.02,10.14,0.56,-0.05,0.17,0.03,0.91,10.22,0.57,-0.00,-0.15,1.80,0.76,10.07,3938.4263,10552.3623,0.61
229439489,0.61,-0.01,0.04,-0.37,1.10,9.87,0.61,-0.02,0.00,-0.07,1.35,9.83,0.67,0.01,-0.04,-0.32,1.05,9.97,0.59,-0.05,0.17,0.06,0.86,10.43,0.59,-0.01,-0.15,1.89,0.74,10.12,3938.4263,10552.3623,0.61
229445207,0.64,-0.02,0.04,-0.45,1.13,10.08,0.64,-0.03,-0.00,-0.22,1.30,10.03,0.70,0.01,-0.04,-0.36,0.99,10.04,0.61,-0.06,0.17,-0.05,0.90,10.36,0.62,-0.01,-0.16,1.81,0.82,10.12,3938.4263,10552.3623,0.61
229451030,0.68,-0.02,0.03,-0.46,1.29,10.15,0.67,-0.03,-0.00,-0.22,1.44,10.05,0.74,0.01,-0.04,-0.36,1.10,10.21,0.66,-0.06,0.17,-0.07,0.99,10.33,0.66,-0.01,-0.16,1.75,0.74,10.03,3938.4263,10552.3623,0.61
229456643,0.72,-0.02,0.03,-0.42,1.20,10.16,0.71,-0.03,-0.00,-0.22,1.46,9.98,0.77,0.01,-0.03,-0.42,1.21,10.04,0.69,-0.06,0.17,-0.06,1.03,10.34,0.70,-0.01,-0.17,1.78,0.87,10.18,3938.4263,10552.3623,0.61
229462272,0.76,-0.02,0.04,-0.32,1.28,10.01,0.75,-0.03,-0.00,-0.09,1.46,9.95,0.81,0.01,-0.03,-0.33,1.20,10.04,0.73,-0.06,0.16,-0.02,1.09,10.39,0.74,-0.01,-0.18,1.87,0.86,10.27,3938.4263,10552.3623,0.61
229467871,0.81,-0.02,0.04,-0.41,1.34,10.11,0.81,-0.03,-0.00,-0.26,1.48,10.08,0.87,0.01,-0.04,-0.44,1.18,10.27,0.78,-0.06,0.16,-0.05,0.99,10.44,0.78,-0.01,-0.19,1.84,0.71,10.31,3938.4263,10552.3623,0.61
229479305,0.92,-0.02,0.04,-0.35,1.43,10.14,0.91,-0.03,-0.00,-0.13,1.63,10.14,0.97,0.01,-0.04,-0.33,1.27,10.27,0.89,-0.07,0.16,0.04,1.04,10.52,0.89,-0.01,-0.21,1.85,0.84,10.17,3938.4263,10552.3623,0.61
229484881,0.97,-0.03,0.05,-0.45,1.41,10.09,0.96,-0.03,-0.00,-0.23,1.60,10.10,1.02,0.01,-0.03,-0.47,1.32,10.28,0.95,-0.07,0.16,-0.06,1.25,10.23,0.95,-0.01,-0.22,1.64,1.10,10.31,3938.4263,10552.3623,0.61
229490399,1.02,-0.02,0.04,-0.41,1.43,10.14,1.01,-0.03,-0.01,-0.18,1.63,9.94,1.07,0.01,-0.03,-0.38,1.35,10.05,0.99,-0.08,0.16,0.01,1.30,10.18,0.99,-0.01,-0.23,1.81,1.09,10.47,3938.4263,10552.3623,0.61
229496218,1.07,-0.02,0.04,-0.40,1.53,10.08,1.06,-0.03,-0.00,-0.17,1.74,10.06,1.12,0.01,-0.03,-0.37,1.50,10.14,1.04,-0.08,0.16,0.00,1.41,10.25,1.04,-0.01,-0.25,1.77,1.27,10.11,3938.4263,10552.3623,0.61
229502046,1.11,-0.02,0.04,-0.39,1.62,9.90,1.11,-0.03,-0.00,-0.17,1.80,9.88,1.17,0.01,-0.03,-0.39,1.54,10.05,1.09,-0.08,0.16,0.00,1.45,10.16,1.09,-0.01,-0.25,1.69,1.28,9.82,3938.4263,10552.3623,0.61
229507936,1.14,-0.02,0.05,-0.38,1.72,9.71,1.14,-0.03,-0.00,-0.16,1.84,9.71,1.20,0.01,-0.03,-0.36,1.59,9.84,1.12,-0.08,0.16,0.04,1.51,9.90,1.12,-0.01,-0.26,1.78,1.39,9.89,3938.4263,10552.3623,0.61
229513851,1.14,-0.01,0.05,-0.39,1.78,9.62,1.14,-0.03,-0.01,-0.14,1.92,9.42,1.20,0.01,-0.03,-0.36,1.73,9.56,1.12,-0.08,0.16,0.02,1.67,9.61,1.11,-0.01,-0.26,1.68,1.61,9.52,3938.4263,10552.3623,0.61
229519763,1.13,-0.02,0.05,-0.33,1.83,9.41,1.12,-0.03,-0.00,-0.08,2.10,9.36,1.19,0.01,-0.03,-0.28,1.79,9.34,1.10,-0.08,0.16,0.08,1.64,9.47,1.10,-0.01,-0.26,1.80,1.39,9.66,3938.4263,10552.3623,0.61
229528826,1.13,-0.01,0.05,-0.35,1.92,9.79,1.12,-0.02,-0.00,-0.14,2.08,9.73,1.18,0.02,-0.03,-0.31,1.86,9.46,1.10,-0.07,0.15,0.05,1.70,9.33,1.09,0.00,-0.26,1.61,1.60,8.96,3938.4263,10552.3623,0.61
229536249,1.14,-0.00,0.04,-0.32,2.04,9.77,1.13,-0.01,-0.01,-0.09,2.21,9.60,1.19,0.04,-0.03,-0.32,1.95,9.44,1.11,-0.05,0.15,0.05,1.79,9.25,1.11,0.02,-0.26,1.58,1.78,8.61,3938.4263,10552.3623,0.61
229542017,1.15,0.01,0.05,-0.34,2.07,9.75,1.15,-0.01,-0.01,-0.13,2.27,9.58,1.21,0.05,-0.04,-0.30,1.98,9.47,1.13,-0.04,0.15,0.07,1.88,9.37,1.12,0.04,-0.26,1.68,1.71,8.85,3938.4263,10552.3623,0.61
229547790,1.17,0.00,0.05,-0.31,2.23,9.76,1.16,0.00,-0.01,-0.06,2.32,9.77,1.22,0.05,-0.03,-0.26,2.01,9.46,1.14,-0.02,0.15,0.02,1.85,9.45,1.13,0.06,-0.27,1.65,1.80,9.27,3938.4263,10552.3623,0.61
229553569,1.20,0.02,0.04,-0.20,2.23,10.06,1.19,0.01,-0.01,0.05,2.44,9.94,1.24,0.06,-0.03,-0.13,2.19,9.77,1.16,-0.02,0.15,0.20,1.99,9.60,1.15,0.06,-0.27,1.91,1.95,9.47,3938.4263,10552.3623,0.61
229559401,1.24,0.01,0.05,0.19,2.37,10.01,1.24,0.01,-0.01,0.48,2.57,9.81,1.30,0.07,-0.03,0.20,2.34,9.89,1.22,-0.02,0.15,0.57,2.18,10.06,1.21,0.07,-0.28,2.31,2.03,9.91,3938.4263,10552.3623,0.61
229565296,1.30,0.02,0.05,0.66,2.50,10.02,1.30,0.02,-0.01,0.88,2.84,9.81,1.36,0.07,-0.03,0.58,2.64,9.95,1.28,-0.02,0.15,1.04,2.62,10.06,1.26,0.05,-0.29,2.75,2.49,10.07,3938.4263,10552.3623,0.61
229571184,1.34,0.02,0.05,1.32,2.69,9.71,1.34,0.02,-0.00,1.60,3.06,9.61,1.41,0.07,-0.02,1.32,2.94,9.98,1.33,-0.04,0.15,1.77,2.97,10.31,1.33,0.04,-0.30,3.42,3.08,9.96,3938.4263,10552.3623,0.61
229577049,1.38,0.03,0.07,2.15,2.76,10.03,1.38,0.02,0.00,2.43,3.37,9.66,1.44,0.06,-0.01,2.14,3.48,9.68,1.36,-0.04,0.16,2.60,3.57,9.67,1.35,0.03,-0.29,4.18,3.82,9.46,3938.4263,10552.3623,0.61
229582778,1.39,0.03,0.09,3.03,3.13,9.13,1.40,0.02,0.02,3.22,3.64,9.20,1.47,0.06,0.00,3.00,3.88,9.52,1.40,-0.04,0.18,3.45,4.11,9.56,1.41,0.03,-0.28,4.91,4.55,9.01,3938.4263,10552.3623,0.61
229588276,1.34,0.02,0.11,3.65,3.42,8.89,1.34,0.02,0.05,3.82,4.34,8.57,1.41,0.05,0.02,3.53,4.81,8.85,1.33,-0.05,0.21,4.01,5.25,8.49,1.33,0.03,-0.25,5.27,6.00,8.30,3938.4263,10552.3623,0.61
229593817,1.29,0.04,0.14,4.02,3.51,8.92,1.30,0.03,0.08,4.16,4.63,8.70,1.36,0.06,0.06,3.99,5.48,8.84,1.28,-0.05,0.25,4.37,5.98,8.26,1.29,0.01,-0.20,5.65,6.97,7.36,3938.4263,10552.3623,0.61
229599410,1.25,0.04,0.19,4.37,3.70,8.86,1.27,0.05,0.12,4.51,4.73,8.19,1.34,0.07,0.10,4.30,5.50,8.03,1.26,-0.04,0.29,4.67,6.37,8.13,1.29,0.03,-0.16,5.69,7.65,6.42,3938.4263,10552.3623,0.61
229606164,1.14,0.06,0.24,4.43,3.48,8.27,1.15,0.06,0.19,4.61,4.40,7.29,1.20,0.08,0.16,4.38,4.63,7.04,1.12,-0.02,0.35,4.71,4.77,7.08,1.14,0.05,-0.07,5.75,5.80,6.07,3938.4263,10552.3623,0.61
229611734,1.15,0.13,0.27,5.78,1.51,1.09,1.24,0.11,0.21,4.10,0.47,-6.67,1.26,0.06,0.20,4.06,4.90,0.76,1.14,-0.04,0.38,4.54,6.70,3.51,1.14,0.03,-0.03,5.27,7.64,5.44,3938.4263,10552.3623,0.61
229617267,0.06,0.37,0.29,-4.90,-3.94,53.42,0.37,0.62,0.24,2.13,-4.09,74.58,1.41,0.97,0.23,2.96,-4.04,-13.97,2.53,-0.25,0.38,-2.31,-3.04,-30.70,3.24,-2.26,-0.37,-4.42,-0.44,-12.87,3938.4263,10552.3623,0.61
229622741,-0.36,0.23,0.35,-4.19,-4.57,23.17,-0.55,-0.17,0.36,-0.95,0.97,71.90,-0.79,-0.09,0.31,1.90,4.21,53.71,-1.38,0.97,0.58,0.34,6.04,12.72,-1.50,1.12,0.67,4.70,7.69,-7.99,3938.4263,10552.3623,0.61
229628487,1.13,0.01,0.33,7.23,-2.85,24.86,1.27,0.31,0.25,8.36,0.31,6.46,1.62,0.97,0.23,8.31,4.91,-21.71,1.90,1.53,0.39,4.93,7.44,-23.93,2.31,1.63,-0.21,5.43,5.82,9.13,3938.4263,10552.3623,0.61
229634241,1.47,0.61,0.40,7.00,6.32,-12.31,1.53,0.50,0.29,7.02,3.53,-23.19,1.59,0.55,0.33,6.34,1.00,-28.19,1.30,0.77,0.48,4.51,-0.38,-1.40,0.48,1.31,0.17,11.16,0.20,45.61,3938.4263,10552.3623,0.61
229640020,-0.03,0.32,0.35,1.40,2.66,10.87,-0.41,0.57,0.30,1.39,3.06,6.57,-0.81,0.70,0.26,-0.44,3.50,19.70,-1.29,0.61,0.53,0.76,4.67,58.09,-1.36,0.45,0.60,14.61,3.03,47.58,3938.4263,10552.3623,0.61
229645858,0.88,0.05,0.36,6.24,0.78,25.28,0.96,0.12,0.32,6.92,-0.37,25.10,1.10,0.33,0.30,6.70,-0.94,23.66,1.14,0.59,0.49,7.24,-0.84,19.00,1.19,1.18,0.06,10.11,-3.37,30.21,3938.4263,10552.3623,0.61
