660202076,0.03,0.00,-0.00,0.39,-0.11,9.93,0.03,-0.00,-0.00,0.65,0.18,9.86,0.03,0.01,-0.00,0.40,-0.01,10.37,0.03,0.01,-0.00,0.84,-0.04,10.20,0.03,0.01,-0.01,2.49,0.11,8.58,3938.4878,10552.4111,0.03
660213627,0.08,0.00,-0.00,0.54,-0.42,9.41,0.08,0.00,-0.00,0.60,-0.11,9.12,0.09,0.02,-0.00,0.54,-0.20,9.52,0.11,0.00,-0.01,0.80,-0.32,10.78,0.11,-0.02,-0.03,2.38,-0.68,8.00,3938.4878,10552.4111,0.03
660218032,0.12,0.00,0.00,0.44,-0.09,9.63,0.12,0.00,-0.00,0.62,0.20,10.11,0.11,0.00,-0.00,0.46,-0.01,10.77,0.10,-0.01,-0.00,0.98,-0.29,9.70,0.11,-0.01,-0.02,2.51,-0.20,9.55,3938.4878,10552.4111,0.03
660222441,0.12,0.00,0.00,0.36,-0.10,9.60,0.11,-0.00,-0.00,0.61,0.16,9.75,0.10,0.00,-0.00,0.45,-0.11,9.72,0.10,0.00,-0.00,0.68,-0.29,9.98,0.11,0.00,-0.02,2.41,-0.39,8.76,3938.4878,10552.4111,0.03
660227215,0.16,0.00,0.00,0.41,-0.20,9.45,0.15,0.00,-0.00,0.61,-0.02,9.21,0.15,0.01,-0.00,0.43,-0.20,9.36,0.14,0.00,-0.00,0.72,-0.33,9.17,0.14,0.00,-0.03,2.35,-0.55,9.08,3938.4878,10552.4111,0.03
660232051,0.19,0.01,0.01,0.47,-0.26,9.56,0.19,0.01,-0.00,0.65,-0.05,9.41,0.20,0.01,0.00,0.50,-0.27,9.44,0.20,0.00,-0.01,0.81,-0.49,9.26,0.20,-0.00,-0.05,2.45,-0.52,8.83,3938.4878,10552.4111,0.03
660236887,0.21,0.01,0.01,0.45,-0.08,9.54,0.21,0.01,-0.00,0.61,0.17,9.77,0.21,0.02,-0.00,0.53,0.03,9.90,0.21,0.01,-0.01,0.78,-0.18,9.48,0.22,0.03,-0.05,2.55,-0.21,9.31,3938.4878,10552.4111,0.03
660241734,0.24,0.01,0.00,0.43,-0.06,10.05,0.23,0.01,-0.00,0.64,0.20,9.90,0.23,0.02,0.00,0.53,-0.03,9.52,0.23,0.02,-0.01,0.77,-0.19,9.37,0.22,0.03,-0.05,2.50,-0.43,9.32,3938.4878,10552.4111,0.03
660246469,0.27,0.01,0.01,0.43,-0.21,9.18,0.27,0.01,-0.00,0.62,0.01,9.28,0.27,0.02,0.00,0.49,-0.24,9.38,0.27,0.01,-0.00,0.80,-0.38,9.43,0.26,0.03,-0.06,2.43,-0.34,9.36,3938.4878,10552.4111,0.03
660251160,0.30,0.01,0.01,0.44,-0.13,9.40,0.29,0.01,-0.00,0.62,0.10,9.47,0.29,0.02,-0.00,0.47,-0.14,9.71,0.30,0.01,-0.01,0.77,-0.31,9.76,0.30,0.02,-0.07,2.50,-0.46,9.52,3938.4878,10552.4111,0.03
660255806,0.34,0.01,0.01,0.48,-0.16,9.32,0.33,0.01,-0.00,0.65,0.08,9.47,0.33,0.02,0.00,0.52,-0.16,9.53,0.33,0.00,-0.01,0.80,-0.26,9.61,0.31,0.01,-0.07,2.52,-0.41,9.24,3938.4878,10552.4111,0.03
660260407,0.38,0.01,0.01,0.53,-0.17,9.63,0.37,0.01,-0.00,0.73,0.07,9.57,0.37,0.02,-0.00,0.61,-0.21,9.20,0.36,0.00,-0.01,0.86,-0.33,8.78,0.36,0.01,-0.08,2.53,-0.44,9.23,3938.4878,10552.4111,0.03
660265164,0.40,0.01,0.01,0.44,-0.05,9.73,0.40,0.01,-0.00,0.66,0.28,9.59,0.39,0.03,0.00,0.51,-0.03,9.69,0.40,0.01,-0.01,0.82,-0.24,9.66,0.40,0.02,-0.09,2.48,-0.35,8.72,3938.4878,10552.4111,0.03
660269971,0.42,0.01,0.01,0.40,-0.03,9.83,0.42,0.02,-0.00,0.65,0.25,9.64,0.42,0.03,0.01,0.47,-0.01,9.62,0.42,0.03,-0.02,0.79,-0.16,9.79,0.41,0.04,-0.09,2.44,-0.28,8.80,3938.4878,10552.4111,0.03
660274682,0.43,0.02,0.01,0.45,-0.14,9.83,0.43,0.02,-0.01,0.64,0.04,9.50,0.43,0.03,0.00,0.51,-0.13,9.93,0.44,0.03,-0.02,0.85,-0.30,9.53,0.43,0.05,-0.10,2.51,-0.12,9.28,3938.4878,10552.4111,0.03
660279494,0.42,0.02,0.01,0.39,0.07,9.87,0.42,0.02,-0.01,0.61,0.27,9.62,0.43,0.03,0.00,0.42,0.06,10.04,0.44,0.03,-0.01,0.82,-0.04,10.17,0.43,0.06,-0.10,2.60,0.01,9.98,3938.4878,10552.4111,0.03
660284259,0.42,0.01,0.01,0.41,0.17,10.06,0.42,0.02,-0.01,0.69,0.42,10.07,0.42,0.03,0.00,0.48,0.09,10.05,0.42,0.02,-0.02,0.79,-0.06,10.27,0.41,0.04,-0.09,2.66,-0.24,10.37,3938.4878,10552.4111,0.03
660288966,0.41,0.01,0.01,0.53,0.11,10.00,0.41,0.01,-0.01,0.73,0.35,10.07,0.41,0.03,0.00,0.54,0.14,10.30,0.41,0.01,-0.01,0.89,0.01,10.18,0.41,0.02,-0.09,2.71,0.14,10.31,3938.4878,10552.4111,0.03
660293671,0.37,0.01,0.01,0.45,0.32,10.33,0.36,0.01,-0.01,0.66,0.52,10.40,0.36,0.02,0.00,0.52,0.27,10.60,0.36,0.01,-0.01,0.84,0.13,10.77,0.36,0.02,-0.08,2.75,0.17,10.24,3938.4878,10552.4111,0.03
660298130,0.33,0.01,0.01,0.47,0.31,10.44,0.32,0.01,-0.00,0.68,0.50,10.43,0.32,0.02,0.00,0.50,0.27,10.52,0.31,0.01,-0.01,0.81,0.12,10.27,0.30,0.02,-0.06,2.66,0.09,9.98,3938.4878,10552.4111,0.03
660302636,0.29,0.01,0.00,0.43,0.23,10.31,0.29,0.01,-0.00,0.64,0.52,10.29,0.29,0.02,-0.00,0.49,0.24,10.27,0.29,0.01,-0.01,0.83,0.03,10.00,0.29,0.02,-0.06,2.58,0.09,9.84,3938.4878,10552.4111,0.03
660308157,0.24,0.01,0.00,0.39,0.28,10.49,0.23,0.01,-0.01,0.65,0.56,10.69,0.24,0.02,0.00,0.44,0.27,10.70,0.24,0.01,-0.01,0.80,0.15,10.48,0.24,0.02,-0.05,2.57,0.19,9.77,3938.4878,10552.4111,0.03
660312706,0.18,0.00,0.03,0.46,0.20,9.93,0.19,0.01,-0.01,0.61,0.60,10.52,0.18,0.01,0.00,0.46,0.14,10.58,0.19,0.01,-0.00,0.76,-0.02,10.59,0.18,0.03,-0.04,2.57,0.08,10.12,3938.4878,10552.4111,0.03
660318559,0.13,0.00,0.00,0.43,0.25,10.22,0.13,-0.00,-0.00,0.67,0.35,9.85,0.13,0.01,-0.00,0.49,0.09,10.14,0.13,0.01,-0.00,0.81,0.00,10.65,0.13,0.02,-0.03,2.79,0.17,10.75,3938.4878,10552.4111,0.03
660322976,0.10,0.00,0.01,0.42,0.23,10.18,0.10,0.00,-0.00,0.64,0.51,10.20,0.10,0.01,0.00,0.47,0.19,10.17,0.10,0.00,-0.00,0.75,0.02,10.45,0.09,-0.00,-0.02,2.68,0.02,10.50,3938.4878,10552.4111,0.03
660327682,0.08,0.00,0.00,0.42,0.13,10.00,0.08,-0.00,-0.00,0.62,0.46,10.05,0.08,0.00,-0.00,0.50,0.20,10.09,0.08,-0.01,-0.00,0.80,0.04,10.08,0.07,-0.02,-0.02,2.65,0.11,10.12,3938.4878,10552.4111,0.03
660332396,0.08,0.00,0.00,0.40,0.14,9.94,0.07,-0.00,-0.00,0.62,0.36,9.92,0.06,0.00,-0.00,0.46,0.16,9.90,0.06,-0.01,-0.00,0.76,0.03,10.10,0.06,-0.02,-0.02,2.54,-0.03,9.55,3938.4878,10552.4111,0.03
660337127,0.06,0.00,0.00,0.38,0.11,9.96,0.06,-0.00,-0.00,0.61,0.40,9.87,0.06,0.00,-0.00,0.43,0.18,9.83,0.06,-0.01,-0.00,0.74,0.10,9.84,0.06,-0.02,-0.01,2.49,-0.06,9.28,3938.4878,10552.4111,0.03
660341908,0.07,0.00,0.00,0.36,0.16,9.82,0.06,0.00,-0.00,0.59,0.39,9.77,0.06,0.00,-0.00,0.43,0.12,9.80,0.06,0.00,-0.00,0.72,-0.03,9.59,0.06,0.00,-0.02,2.41,-0.01,9.06,3938.4878,10552.4111,0.03
660346744,0.07,0.00,0.00,0.39,0.23,9.86,0.07,-0.00,-0.00,0.62,0.41,9.72,0.07,0.01,-0.00,0.37,0.16,9.70,0.08,0.01,-0.01,0.72,0.01,9.59,0.08,0.01,-0.02,2.43,-0.10,9.13,3938.4878,10552.4111,0.03
660351570,0.08,0.01,-0.00,0.38,0.19,9.88,0.08,0.00,-0.00,0.62,0.49,9.88,0.08,0.01,-0.00,0.43,0.19,9.91,0.09,0.01,-0.01,0.74,0.08,9.84,0.09,0.02,-0.02,2.51,0.02,9.49,3938.4878,10552.4111,0.03
660356359,0.07,0.00,-0.00,0.37,0.23,9.94,0.07,0.00,-0.00,0.59,0.46,9.98,0.08,0.01,-0.00,0.43,0.21,10.00,0.08,0.02,-0.00,0.74,0.12,10.07,0.08,0.02,-0.02,2.53,0.00,9.83,3938.4878,10552.4111,0.03
660361085,0.07,0.00,-0.00,0.37,0.23,9.88,0.07,0.00,-0.00,0.58,0.45,9.94,0.07,0.01,-0.00,0.39,0.28,9.99,0.07,0.01,-0.00,0.69,0.09,10.16,0.07,0.01,-0.02,2.56,0.04,10.13,3938.4878,10552.4111,0.03
660365744,0.06,0.00,-0.00,0.32,0.21,9.94,0.06,-0.00,-0.00,0.58,0.47,9.97,0.05,0.00,-0.00,0.41,0.21,10.00,0.06,0.00,-0.00,0.71,0.09,10.17,0.06,-0.00,-0.01,2.55,0.05,10.18,3938.4878,10552.4111,0.03
660370427,0.05,0.00,0.00,0.38,0.23,9.90,0.05,-0.00,0.00,0.59,0.49,9.91,0.05,0.00,-0.00,0.41,0.24,9.98,0.04,-0.01,-0.00,0.68,0.12,10.10,0.04,-0.01,-0.01,2.53,0.05,9.99,3938.4878,10552.4111,0.03
660375124,0.05,-0.00,0.00,0.38,0.26,9.89,0.04,-0.00,-0.00,0.57,0.43,9.88,0.04,0.00,-0.00,0.43,0.22,9.92,0.04,-0.01,-0.00,0.70,0.04,9.92,0.04,-0.01,-0.01,2.48,0.02,9.56,3938.4878,10552.4111,0.03
660379910,0.05,0.00,-0.00,0.35,0.21,9.88,0.04,-0.00,-0.00,0.59,0.48,9.77,0.04,0.00,-0.00,0.41,0.21,9.70,0.04,-0.00,-0.00,0.74,0.01,9.78,0.04,-0.01,-0.01,2.46,-0.03,9.23,3938.4878,10552.4111,0.03
660384736,0.05,0.00,-0.00,0.35,0.20,9.75,0.05,-0.00,0.00,0.57,0.42,9.75,0.05,0.00,-0.00,0.40,0.16,9.74,0.05,0.00,-0.00,0.71,0.02,9.71,0.05,0.00,-0.01,2.45,-0.06,9.14,3938.4878,10552.4111,0.03
660389582,0.06,0.00,0.00,0.33,0.23,9.80,0.06,0.00,-0.00,0.53,0.46,9.73,0.06,0.01,-0.00,0.37,0.22,9.78,0.06,0.01,-0.00,0.72,0.05,9.67,0.06,0.01,-0.02,2.45,-0.03,9.18,3938.4878,10552.4111,0.03
660394406,0.07,0.01,0.00,0.38,0.20,9.83,0.07,0.00,-0.00,0.62,0.47,9.75,0.07,0.01,-0.00,0.42,0.17,9.72,0.08,0.01,-0.00,0.74,0.09,9.73,0.07,0.02,-0.02,2.43,-0.02,9.42,3938.4878,10552.4111,0.03
660398878,0.08,0.00,-0.00,0.33,0.18,9.74,0.07,0.00,-0.00,0.57,0.43,9.76,0.08,0.01,-0.00,0.37,0.21,9.80,0.08,0.01,-0.00,0.73,0.08,9.87,0.08,0.01,-0.02,2.47,-0.03,9.71,3938.4878,10552.4111,0.03
660403319,0.08,0.00,0.00,0.34,0.26,9.76,0.08,0.00,-0.00,0.55,0.40,9.77,0.09,0.01,-0.00,0.39,0.19,9.77,0.08,0.01,-0.00,0.69,0.04,9.94,0.09,0.01,-0.02,2.51,-0.01,9.82,3938.4878,10552.4111,0.03
660407780,0.09,0.01,0.00,0.38,0.19,9.78,0.09,0.00,-0.00,0.60,0.46,9.77,0.09,0.01,-0.00,0.38,0.23,9.79,0.09,0.00,-0.00,0.71,0.08,9.87,0.09,0.00,-0.02,2.48,0.03,9.82,3938.4878,10552.4111,0.03
660413241,0.10,0.01,0.00,0.35,0.23,9.88,0.09,0.00,-0.01,0.59,0.47,9.83,0.10,0.01,-0.00,0.40,0.20,9.88,0.10,-0.00,-0.01,0.71,0.09,9.94,0.10,-0.01,-0.02,2.44,0.03,9.58,3938.4878,10552.4111,0.03
660417749,0.10,0.01,-0.00,0.37,0.31,9.93,0.10,-0.00,-0.00,0.58,0.53,9.91,0.10,0.00,-0.00,0.42,0.25,9.91,0.09,-0.00,-0.00,0.68,0.05,9.84,0.09,0.00,-0.02,2.40,0.03,9.35,3938.4878,10552.4111,0.03
660422303,0.09,0.00,0.00,0.31,0.22,9.90,0.09,0.00,-0.00,0.57,0.48,9.84,0.09,0.01,-0.00,0.39,0.20,9.87,0.09,0.01,-0.00,0.68,0.08,9.90,0.09,0.01,-0.02,2.46,0.00,9.38,3938.4878,10552.4111,0.03
660427149,0.08,0.00,-0.00,0.33,0.29,9.95,0.08,0.00,-0.00,0.56,0.46,9.80,0.08,0.01,-0.00,0.36,0.27,9.83,0.09,0.01,-0.00,0.69,0.13,10.01,0.09,0.01,-0.02,2.47,0.11,9.62,3938.4878,10552.4111,0.03
660431929,0.08,0.00,0.00,0.35,0.25,9.82,0.08,0.00,-0.00,0.52,0.49,9.83,0.09,0.01,0.00,0.35,0.21,9.72,0.08,0.01,-0.00,0.66,0.03,9.81,0.08,0.02,-0.02,2.42,-0.02,9.71,3938.4878,10552.4111,0.03
660436605,0.09,0.00,0.00,0.28,0.27,9.75,0.09,0.00,-0.00,0.50,0.47,9.72,0.09,0.01,-0.00,0.30,0.24,9.80,0.10,0.00,-0.01,0.66,0.09,9.99,0.10,0.00,-0.03,2.44,-0.01,9.80,3938.4878,10552.4111,0.03
660441300,0.09,0.01,-0.00,0.29,0.30,9.96,0.09,0.00,-0.00,0.51,0.57,10.02,0.09,0.01,-0.00,0.35,0.34,10.06,0.09,0.00,-0.00,0.66,0.19,10.11,0.09,-0.00,-0.02,2.46,0.10,9.80,3938.4878,10552.4111,0.03
660446030,0.09,0.00,0.00,0.28,0.27,9.82,0.08,-0.00,-0.00,0.42,0.46,9.76,0.08,0.00,-0.00,0.30,0.20,9.79,0.08,0.00,-0.01,0.59,0.09,9.90,0.08,0.00,-0.02,2.33,0.08,9.72,3938.4878,10552.4111,0.03
660450788,0.09,0.00,0.00,0.21,0.29,9.77,0.09,0.00,-0.00,0.48,0.52,9.73,0.09,0.00,-0.00,0.29,0.20,9.66,0.09,-0.00,-0.00,0.51,0.04,9.69,0.10,-0.00,-0.02,2.32,-0.13,9.58,3938.4878,10552.4111,0.03
660455594,0.11,0.01,-0.00,0.17,0.23,9.69,0.11,0.00,-0.00,0.38,0.48,9.73,0.11,0.01,-0.00,0.22,0.17,9.77,0.11,-0.00,-0.01,0.55,0.11,9.79,0.11,-0.00,-0.03,2.28,0.07,9.39,3938.4878,10552.4111,0.03
660460438,0.11,0.01,0.00,0.17,0.30,9.81,0.11,0.00,-0.01,0.38,0.57,9.82,0.11,0.01,-0.00,0.23,0.26,9.84,0.11,0.00,-0.01,0.48,0.13,9.72,0.11,0.00,-0.03,2.27,0.02,9.32,3938.4878,10552.4111,0.03
660466420,0.12,0.01,-0.00,0.16,0.31,9.73,0.12,0.00,-0.00,0.37,0.52,9.68,0.12,0.01,0.00,0.17,0.22,9.78,0.12,0.01,-0.01,0.52,0.08,9.69,0.12,0.01,-0.03,2.20,-0.06,9.40,3938.4878,10552.4111,0.03
660471156,0.14,0.01,0.00,0.13,0.25,9.64,0.15,0.00,-0.00,0.31,0.48,9.65,0.15,0.01,-0.00,0.17,0.20,9.67,0.15,0.01,-0.01,0.47,0.11,9.57,0.14,0.01,-0.03,2.12,-0.05,9.29,3938.4878,10552.4111,0.03
660475791,0.15,0.01,-0.00,0.07,0.27,9.86,0.16,0.00,-0.00,0.29,0.49,9.90,0.16,0.01,-0.01,0.11,0.22,9.94,0.17,0.01,-0.01,0.46,0.12,9.78,0.17,0.01,-0.04,2.17,0.03,9.48,3938.4878,10552.4111,0.03
660480471,0.16,0.01,-0.00,-0.02,0.30,9.80,0.16,0.00,-0.01,0.21,0.62,9.80,0.16,0.01,-0.00,-0.01,0.35,9.99,0.16,0.01,-0.01,0.32,0.23,9.94,0.15,0.01,-0.04,2.09,0.16,9.62,3938.4878,10552.4111,0.03
660485234,0.16,0.01,0.00,0.03,0.26,9.85,0.16,0.01,-0.00,0.27,0.51,9.73,0.16,0.01,-0.00,0.08,0.28,9.67,0.16,0.01,-0.01,0.38,0.15,9.89,0.16,0.02,-0.04,2.15,0.00,9.58,3938.4878,10552.4111,0.03
660489994,0.17,0.01,-0.00,0.10,0.29,9.88,0.17,0.01,-0.00,0.35,0.53,9.78,0.17,0.01,0.00,0.14,0.27,9.68,0.17,0.01,-0.01,0.44,0.13,9.76,0.17,0.01,-0.04,2.17,0.02,9.74,3938.4878,10552.4111,0.03
660494787,0.16,0.01,0.00,0.08,0.34,9.65,0.16,0.01,-0.01,0.26,0.58,9.70,0.17,0.01,-0.00,0.11,0.32,10.03,0.17,0.01,-0.01,0.42,0.20,10.13,0.17,0.01,-0.04,2.22,0.19,9.76,3938.4878,10552.4111,0.03
660499305,0.17,0.01,-0.00,0.18,0.35,10.08,0.16,0.00,-0.00,0.42,0.62,10.14,0.16,0.01,-0.00,0.27,0.30,9.95,0.16,0.01,-0.01,0.57,0.19,9.88,0.15,0.01,-0.04,2.28,0.10,9.62,3938.4878,10552.4111,0.03
660503780,0.16,0.01,0.00,0.35,0.34,9.81,0.15,0.01,-0.01,0.55,0.58,9.85,0.16,0.01,-0.01,0.36,0.37,9.91,0.16,0.01,-0.01,0.71,0.21,10.00,0.16,0.01,-0.04,2.45,0.23,9.59,3938.4878,10552.4111,0.03
660508280,0.14,0.01,0.00,0.36,0.33,9.99,0.15,0.01,-0.01,0.56,0.64,9.99,0.15,0.01,-0.00,0.44,0.43,10.05,0.15,0.01,-0.01,0.80,0.33,10.10,0.15,0.01,-0.04,2.58,0.27,9.73,3938.4878,10552.4111,0.03
660513636,0.14,0.01,-0.00,0.54,0.33,9.93,0.14,0.00,-0.00,0.74,0.59,9.88,0.14,0.01,-0.01,0.61,0.38,9.83,0.14,0.01,-0.01,0.92,0.24,9.71,0.13,0.01,-0.03,2.62,0.19,9.58,3938.4878,10552.4111,0.03
660518039,0.14,0.01,0.00,0.67,0.38,9.95,0.14,0.01,-0.01,0.87,0.59,9.86,0.14,0.01,-0.00,0.71,0.33,9.88,0.15,0.01,-0.01,1.01,0.18,10.08,0.15,0.01,-0.03,2.83,0.12,9.63,3938.4878,10552.4111,0.03
660522496,0.13,0.01,0.00,0.71,0.43,9.96,0.13,0.00,-0.01,0.93,0.67,9.93,0.13,0.01,-0.00,0.73,0.44,9.97,0.13,0.01,-0.01,1.08,0.29,10.11,0.13,0.01,-0.03,2.87,0.32,9.68,3938.4878,10552.4111,0.03
660527281,0.12,0.01,0.00,0.85,0.43,10.01,0.12,0.00,-0.00,1.04,0.65,10.07,0.12,0.01,-0.00,0.88,0.43,9.99,0.12,0.01,-0.00,1.20,0.26,9.93,0.12,0.01,-0.03,2.96,0.26,9.57,3938.4878,10552.4111,0.03
660532083,0.11,0.01,-0.00,0.83,0.42,9.96,0.11,0.00,-0.00,1.09,0.58,10.00,0.11,0.01,-0.00,0.91,0.42,10.01,0.11,0.01,-0.01,1.23,0.27,10.16,0.11,0.01,-0.03,3.01,0.31,9.51,3938.4878,10552.4111,0.03
660536900,0.10,0.01,0.00,0.83,0.43,10.01,0.10,0.01,-0.00,1.05,0.69,9.93,0.10,0.01,-0.00,0.90,0.46,9.95,0.10,0.01,-0.01,1.20,0.33,9.93,0.10,0.01,-0.02,2.95,0.24,9.61,3938.4878,10552.4111,0.03
660541707,0.10,0.01,-0.00,0.81,0.39,9.87,0.09,0.00,-0.00,0.99,0.63,9.89,0.10,0.01,-0.00,0.84,0.47,10.02,0.10,0.00,-0.01,1.16,0.29,10.07,0.10,0.01,-0.02,2.94,0.22,9.60,3938.4878,10552.4111,0.03
660546476,0.09,0.01,0.00,0.65,0.45,10.04,0.09,0.00,-0.00,0.91,0.75,10.07,0.09,0.01,-0.00,0.79,0.45,9.95,0.09,0.00,-0.01,1.05,0.30,9.92,0.09,0.01,-0.02,2.84,0.24,9.49,3938.4878,10552.4111,0.03
660551132,0.09,0.01,-0.00,0.62,0.43,9.85,0.08,0.00,-0.00,0.83,0.65,9.84,0.08,0.01,-0.00,0.66,0.44,10.03,0.09,0.00,-0.00,1.04,0.32,9.98,0.09,0.00,-0.02,2.75,0.24,9.56,3938.4878,10552.4111,0.03
660555814,0.07,0.01,-0.00,0.55,0.48,9.94,0.07,0.00,-0.00,0.79,0.70,9.95,0.07,0.01,-0.01,0.63,0.47,9.96,0.07,0.01,-0.00,0.93,0.29,10.02,0.07,0.00,-0.02,2.71,0.22,9.68,3938.4878,10552.4111,0.03
660560554,0.07,0.01,-0.00,0.58,0.42,9.89,0.07,0.00,0.00,0.77,0.62,9.89,0.07,0.01,-0.00,0.63,0.39,9.97,0.07,0.01,-0.00,0.94,0.33,9.84,0.07,0.00,-0.01,2.73,0.25,9.67,3938.4878,10552.4111,0.03
660565308,0.06,0.01,0.01,0.51,0.44,9.88,0.06,0.00,-0.00,0.76,0.66,9.88,0.06,0.01,-0.00,0.57,0.41,9.81,0.06,0.01,-0.00,0.91,0.30,9.97,0.06,0.00,-0.02,2.66,0.19,9.67,3938.4878,10552.4111,0.03
660570093,0.06,0.01,0.00,0.49,0.44,9.88,0.06,0.00,-0.00,0.69,0.72,9.92,0.06,0.01,0.00,0.56,0.46,10.01,0.06,0.01,-0.00,0.86,0.30,9.94,0.06,0.00,-0.01,2.62,0.25,9.70,3938.4878,10552.4111,0.03
660574880,0.06,0.01,0.00,0.48,0.42,9.85,0.05,0.00,0.00,0.70,0.67,9.84,0.05,0.00,-0.00,0.54,0.42,9.92,0.05,0.00,-0.00,0.88,0.26,9.89,0.05,0.00,-0.01,2.57,0.27,9.58,3938.4878,10552.4111,0.03
660579689,0.06,0.01,-0.00,0.46,0.40,9.83,0.06,0.00,0.00,0.68,0.68,9.82,0.05,0.01,-0.00,0.54,0.44,9.76,0.05,0.00,-0.00,0.85,0.25,9.82,0.06,0.00,-0.01,2.61,0.18,9.44,3938.4878,10552.4111,0.03
660584461,0.07,0.01,-0.00,0.46,0.40,9.79,0.06,0.00,-0.00,0.66,0.63,9.74,0.06,0.00,-0.00,0.53,0.44,9.72,0.06,0.00,-0.00,0.82,0.27,9.82,0.06,0.00,-0.01,2.61,0.18,9.53,3938.4878,10552.4111,0.03
660589149,0.07,0.01,0.00,0.44,0.43,9.78,0.07,0.01,-0.00,0.68,0.67,9.72,0.07,0.01,-0.00,0.49,0.41,9.74,0.07,0.00,0.00,0.84,0.29,9.84,0.07,-0.00,-0.01,2.52,0.20,9.36,3938.4878,10552.4111,0.03
660593848,0.08,0.01,0.00,0.42,0.44,9.80,0.08,0.00,-0.00,0.66,0.66,9.72,0.08,0.01,-0.00,0.51,0.41,9.72,0.08,0.00,-0.00,0.75,0.27,9.71,0.08,0.00,-0.02,2.53,0.21,9.29,3938.4878,10552.4111,0.03
660598369,0.09,0.01,0.00,0.43,0.39,9.76,0.09,0.01,0.00,0.64,0.68,9.71,0.09,0.01,-0.00,0.48,0.44,9.66,0.09,0.01,-0.00,0.82,0.31,9.64,0.09,0.00,-0.02,2.55,0.26,9.33,3938.4878,10552.4111,0.03
660602887,0.10,0.01,-0.00,0.45,0.42,9.81,0.10,0.01,-0.00,0.64,0.65,9.66,0.10,0.01,0.00,0.47,0.39,9.69,0.10,0.01,-0.00,0.79,0.26,9.65,0.10,0.01,-0.02,2.48,0.18,9.24,3938.4878,10552.4111,0.03
660607423,0.11,0.02,0.00,0.42,0.44,9.89,0.11,0.01,-0.00,0.62,0.72,9.86,0.11,0.02,0.00,0.46,0.48,9.82,0.11,0.01,-0.01,0.82,0.30,9.79,0.12,0.01,-0.02,2.54,0.19,9.35,3938.4878,10552.4111,0.03
660618254,0.11,0.01,0.01,0.44,0.42,9.84,0.10,0.01,-0.00,0.65,0.62,9.90,0.11,0.01,-0.00,0.44,0.48,9.84,0.11,0.02,-0.00,0.78,0.30,9.92,0.11,0.02,-0.02,2.54,0.28,9.70,3938.4878,10552.4111,0.03
660622934,0.11,0.01,0.00,0.43,0.52,9.82,0.10,0.01,-0.00,0.62,0.72,9.88,0.11,0.02,-0.00,0.47,0.50,9.92,0.11,0.01,-0.00,0.78,0.34,9.97,0.11,0.02,-0.02,2.55,0.23,9.73,3938.4878,10552.4111,0.03
660627522,0.10,0.01,0.00,0.42,0.55,9.89,0.10,0.01,0.00,0.66,0.74,9.96,0.10,0.01,0.00,0.48,0.51,10.01,0.11,0.01,-0.00,0.80,0.37,10.07,0.11,0.01,-0.02,2.57,0.29,9.70,3938.4878,10552.4111,0.03
660631978,0.09,0.01,0.00,0.42,0.47,9.89,0.09,0.01,-0.00,0.66,0.77,9.91,0.09,0.01,-0.00,0.47,0.53,10.00,0.09,0.01,-0.00,0.82,0.36,10.12,0.09,0.01,-0.02,2.59,0.34,9.79,3938.4878,10552.4111,0.03
660636821,0.09,0.01,0.00,0.46,0.53,9.87,0.08,0.01,-0.00,0.67,0.77,9.82,0.09,0.01,0.00,0.45,0.50,9.88,0.08,0.01,-0.00,0.82,0.35,9.93,0.08,0.00,-0.02,2.59,0.26,9.80,3938.4878,10552.4111,0.03
660641670,0.09,0.01,0.00,0.44,0.50,9.89,0.09,0.01,-0.00,0.63,0.67,9.85,0.09,0.01,0.00,0.49,0.46,9.87,0.09,0.00,-0.00,0.77,0.32,9.94,0.09,-0.00,-0.02,2.56,0.25,9.61,3938.4878,10552.4111,0.03
660646485,0.08,0.01,0.00,0.41,0.50,9.89,0.08,0.00,0.00,0.62,0.78,9.88,0.08,0.01,0.00,0.49,0.49,9.97,0.08,0.01,-0.00,0.83,0.35,9.94,0.08,0.00,-0.02,2.58,0.35,9.55,3938.4878,10552.4111,0.03
660651309,0.08,0.01,0.00,0.43,0.52,9.84,0.07,0.01,0.00,0.63,0.75,9.79,0.08,0.01,-0.00,0.49,0.48,9.80,0.08,0.01,0.00,0.80,0.33,9.79,0.07,0.01,-0.01,2.52,0.19,9.47,3938.4878,10552.4111,0.03
660788165,0.12,0.00,0.01,0.38,0.64,9.97,0.11,0.01,-0.00,0.62,0.80,9.91,0.11,0.04,0.01,0.40,0.56,9.84,0.11,0.05,-0.00,0.77,0.31,9.71,0.11,0.06,-0.02,2.47,0.23,9.30,3938.4878,10552.4111,0.03
660993830,0.09,0.00,-0.00,0.33,0.99,9.63,0.08,0.00,-0.01,0.49,1.26,9.67,0.08,0.01,-0.00,0.35,1.01,9.82,0.08,0.01,-0.01,0.69,0.94,9.86,0.09,0.01,-0.02,2.38,0.85,9.56,3938.4878,10552.4111,0.03
660998489,0.07,0.00,-0.00,0.32,1.11,9.64,0.07,0.00,-0.01,0.52,1.29,9.69,0.07,0.01,-0.00,0.36,1.09,9.77,0.07,0.01,-0.01,0.68,0.95,9.83,0.07,0.01,-0.02,2.37,0.92,9.49,3938.4878,10552.4111,0.03
661003160,0.05,0.00,-0.01,0.35,1.11,9.69,0.05,0.00,-0.01,0.55,1.35,9.61,0.05,0.01,-0.01,0.36,1.09,9.79,0.05,0.01,-0.01,0.71,0.97,9.79,0.05,0.01,-0.01,2.39,1.00,9.59,3938.4878,10552.4111,0.03
661007920,0.03,0.00,-0.00,0.37,1.19,9.72,0.03,-0.00,-0.00,0.53,1.44,9.70,0.02,0.01,-0.01,0.37,1.24,9.78,0.03,0.01,-0.01,0.75,1.10,9.98,0.03,0.01,-0.01,2.43,1.16,9.58,3938.4878,10552.4111,0.03
661012746,0.01,0.00,-0.00,0.36,1.20,9.69,0.01,-0.00,-0.00,0.57,1.37,9.64,0.01,0.00,-0.00,0.38,1.16,9.77,0.01,0.01,-0.00,0.72,1.05,9.82,0.01,0.00,-0.01,2.45,0.98,9.68,3938.4878,10552.4111,0.03
661017513,-0.01,-0.00,-0.00,0.39,1.14,9.75,-0.01,-0.00,0.00,0.54,1.36,9.67,-0.01,0.00,-0.00,0.41,1.11,9.80,-0.01,0.00,-0.01,0.72,1.00,9.91,-0.01,-0.00,-0.00,2.44,0.91,9.69,3938.4878,10552.4111,0.03
661022340,-0.02,-0.00,0.00,0.35,1.10,9.75,-0.02,-0.01,-0.00,0.60,1.26,9.73,-0.02,-0.00,-0.00,0.40,1.03,9.82,-0.01,-0.00,-0.00,0.71,0.88,9.91,-0.01,-0.01,-0.00,2.46,0.79,9.67,3938.4878,10552.4111,0.03
661027147,-0.02,-0.00,-0.00,0.28,1.03,9.77,-0.02,-0.01,-0.00,0.50,1.25,9.71,-0.02,-0.01,-0.00,0.37,1.01,9.82,-0.02,-0.00,-0.00,0.67,0.89,9.86,-0.02,-0.01,0.00,2.43,0.87,9.58,3938.4878,10552.4111,0.03
661031859,-0.04,-0.00,-0.00,0.32,1.02,9.72,-0.04,-0.01,-0.00,0.52,1.26,9.70,-0.03,-0.00,-0.00,0.35,0.98,9.78,-0.03,-0.00,-0.00,0.67,0.86,9.86,-0.03,-0.01,0.00,2.42,0.81,9.52,3938.4878,10552.4111,0.03
661036545,-0.04,-0.00,-0.00,0.33,1.02,9.70,-0.04,-0.01,-0.00,0.52,1.23,9.71,-0.04,-0.01,-0.00,0.40,1.00,9.82,-0.04,-0.00,-0.00,0.67,0.84,9.89,-0.04,-0.01,0.01,2.46,0.81,9.57,3938.4878,10552.4111,0.03
661040961,-0.05,-0.00,-0.00,0.37,0.98,9.76,-0.05,-0.01,-0.00,0.54,1.18,9.70,-0.05,-0.01,-0.00,0.40,0.95,9.76,-0.05,-0.00,-0.00,0.74,0.83,9.92,-0.05,-0.01,0.00,2.51,0.80,9.63,3938.4878,10552.4111,0.03
661045495,-0.06,-0.01,-0.01,0.39,1.01,9.71,-0.06,-0.01,0.00,0.59,1.21,9.63,-0.06,-0.01,-0.00,0.43,0.96,9.81,-0.06,-0.00,0.00,0.78,0.81,9.93,-0.05,-0.01,0.01,2.53,0.79,9.65,3938.4878,10552.4111,0.03
661051014,-0.08,-0.00,-0.00,0.43,0.92,9.75,-0.07,-0.02,0.00,0.65,1.11,8.83,-0.07,-0.01,-0.00,0.42,0.86,9.78,-0.07,-0.01,0.00,0.78,0.78,9.89,-0.06,-0.01,0.01,2.54,0.78,9.73,3938.4878,10552.4111,0.03
661055526,-0.10,-0.01,-0.00,0.42,1.02,9.74,-0.10,-0.02,-0.00,0.63,1.25,9.75,-0.10,-0.02,-0.00,0.47,1.05,9.63,-0.10,-0.01,-0.00,0.79,0.91,9.82,-0.10,-0.02,0.02,2.53,0.90,9.85,3938.4878,10552.4111,0.03
661060003,-0.12,-0.01,-0.00,0.42,1.03,9.89,-0.11,-0.02,0.00,0.67,1.25,9.88,-0.12,-0.02,-0.00,0.43,1.01,9.89,-0.12,-0.02,0.00,0.76,0.89,9.94,-0.12,-0.03,0.02,2.56,0.85,9.67,3938.4878,10552.4111,0.03
661064404,-0.12,-0.01,-0.00,0.41,0.96,9.92,-0.11,-0.01,0.00,0.66,1.12,9.86,-0.12,-0.01,-0.00,0.47,0.87,9.84,-0.11,-0.02,0.00,0.75,0.68,9.81,-0.10,-0.03,0.02,2.51,0.56,9.46,3938.4878,10552.4111,0.03
661069128,-0.13,-0.01,-0.01,0.39,0.96,9.85,-0.12,-0.01,0.00,0.63,1.18,9.77,-0.12,-0.02,-0.01,0.42,0.90,9.76,-0.12,-0.02,-0.00,0.79,0.77,9.79,-0.11,-0.03,0.02,2.47,0.74,9.36,3938.4878,10552.4111,0.03
661073892,-0.15,-0.01,-0.00,0.33,0.97,9.85,-0.14,-0.01,-0.00,0.59,1.21,9.83,-0.14,-0.01,-0.01,0.40,0.97,9.79,-0.15,-0.01,0.00,0.71,0.86,9.69,-0.15,-0.02,0.03,2.40,0.83,9.23,3938.4878,10552.4111,0.03
661078650,-0.14,-0.01,-0.00,0.33,0.91,9.94,-0.14,-0.01,0.00,0.58,1.13,9.84,-0.14,-0.01,-0.00,0.37,0.97,9.84,-0.14,-0.00,0.00,0.71,0.75,9.76,-0.14,-0.01,0.03,2.41,0.64,9.25,3938.4878,10552.4111,0.03
661083458,-0.14,-0.01,-0.00,0.36,0.86,9.81,-0.14,-0.01,0.00,0.59,1.09,9.76,-0.14,-0.01,-0.00,0.39,0.85,9.74,-0.14,0.00,0.00,0.67,0.69,9.73,-0.13,-0.00,0.02,2.45,0.64,9.40,3938.4878,10552.4111,0.03
661088262,-0.15,-0.01,-0.01,0.34,0.92,9.82,-0.15,-0.01,0.00,0.58,1.14,9.82,-0.15,-0.00,-0.00,0.40,0.95,9.86,-0.16,0.01,-0.00,0.74,0.83,9.75,-0.15,-0.00,0.03,2.43,0.80,9.50,3938.4878,10552.4111,0.03
661093076,-0.16,-0.01,-0.00,0.36,0.93,9.85,-0.16,-0.01,-0.00,0.59,1.12,9.78,-0.16,-0.01,-0.00,0.39,0.88,9.82,-0.15,0.01,0.00,0.70,0.72,9.97,-0.15,-0.00,0.03,2.48,0.66,9.75,3938.4878,10552.4111,0.03
661097904,-0.16,-0.01,-0.00,0.39,0.89,9.82,-0.16,-0.01,-0.00,0.61,1.09,9.74,-0.16,-0.01,-0.01,0.43,0.84,9.81,-0.16,-0.00,0.00,0.75,0.71,9.93,-0.15,-0.01,0.03,2.51,0.67,9.83,3938.4878,10552.4111,0.03
661102613,-0.17,-0.01,-0.00,0.38,0.89,9.85,-0.16,-0.01,0.00,0.56,1.15,9.81,-0.16,-0.01,-0.01,0.37,0.86,9.83,-0.17,-0.00,0.00,0.68,0.75,9.94,-0.16,-0.01,0.03,2.48,0.66,9.85,3938.4878,10552.4111,0.03
661107309,-0.17,-0.01,-0.01,0.37,0.89,9.81,-0.17,-0.01,0.00,0.55,1.07,9.78,-0.17,-0.01,-0.00,0.41,0.84,9.84,-0.17,-0.01,0.00,0.72,0.73,9.91,-0.17,-0.02,0.03,2.48,0.68,9.73,3938.4878,10552.4111,0.03
661112047,-0.17,-0.01,-0.00,0.37,0.86,9.79,-0.17,-0.01,0.00,0.54,1.07,9.80,-0.17,-0.01,-0.00,0.43,0.86,9.79,-0.17,-0.01,0.00,0.72,0.66,9.87,-0.16,-0.02,0.03,2.42,0.61,9.44,3938.4878,10552.4111,0.03
661116830,-0.17,-0.01,-0.01,0.36,0.86,9.77,-0.18,-0.01,-0.00,0.54,1.08,9.74,-0.17,-0.01,-0.00,0.39,0.87,9.81,-0.17,-0.01,-0.00,0.70,0.73,9.81,-0.17,-0.02,0.03,2.44,0.63,9.41,3938.4878,10552.4111,0.03
661121605,-0.18,-0.01,-0.00,0.36,0.89,9.79,-0.18,-0.01,0.00,0.58,1.11,9.80,-0.18,-0.01,-0.00,0.42,0.87,9.82,-0.18,-0.00,0.00,0.73,0.74,9.75,-0.17,-0.02,0.04,2.40,0.67,9.37,3938.4878,10552.4111,0.03
661126466,-0.18,-0.01,-0.00,0.34,0.85,9.85,-0.19,-0.01,-0.00,0.62,1.10,9.78,-0.19,-0.01,-0.00,0.40,0.85,9.82,-0.18,0.00,0.00,0.70,0.73,9.81,-0.18,-0.01,0.04,2.40,0.65,9.46,3938.4878,10552.4111,0.03
661131299,-0.19,-0.01,-0.01,0.36,0.85,9.81,-0.19,-0.01,0.00,0.53,1.04,9.80,-0.18,-0.01,-0.01,0.41,0.77,9.83,-0.18,0.00,0.00,0.72,0.65,9.94,-0.18,-0.00,0.04,2.39,0.60,9.54,3938.4878,10552.4111,0.03
661135844,-0.19,-0.01,-0.01,0.34,0.82,9.85,-0.19,-0.01,-0.00,0.54,1.05,9.77,-0.19,-0.01,-0.00,0.38,0.81,9.82,-0.18,0.00,0.00,0.69,0.62,9.92,-0.18,-0.01,0.04,2.45,0.59,9.61,3938.4878,10552.4111,0.03
661141428,-0.20,-0.01,-0.01,0.33,0.83,9.88,-0.20,-0.01,-0.00,0.59,1.06,9.78,-0.20,-0.01,-0.00,0.39,0.81,9.84,-0.20,0.00,0.00,0.71,0.68,9.88,-0.19,-0.01,0.04,2.48,0.66,9.78,3938.4878,10552.4111,0.03
661145856,-0.20,-0.00,-0.01,0.32,0.84,9.85,-0.20,-0.01,-0.00,0.58,1.02,9.79,-0.20,-0.01,-0.00,0.43,0.81,9.80,-0.20,-0.01,0.00,0.68,0.62,9.95,-0.20,-0.02,0.04,2.48,0.56,9.69,3938.4878,10552.4111,0.03
661151215,-0.20,-0.01,-0.01,0.32,0.82,9.90,-0.20,-0.01,0.00,0.50,0.99,9.80,-0.20,-0.01,-0.00,0.38,0.75,9.82,-0.20,-0.01,0.00,0.69,0.57,9.88,-0.19,-0.02,0.04,2.46,0.55,9.56,3938.4878,10552.4111,0.03
661155712,-0.20,-0.00,-0.00,0.32,0.80,9.79,-0.20,-0.01,0.00,0.51,1.04,9.77,-0.20,-0.01,-0.01,0.40,0.81,9.81,-0.20,-0.01,0.00,0.68,0.65,9.86,-0.20,-0.02,0.04,2.42,0.56,9.47,3938.4878,10552.4111,0.03
661160254,-0.20,-0.00,-0.00,0.31,0.79,9.85,-0.20,-0.01,0.00,0.52,1.01,9.78,-0.20,-0.01,-0.00,0.37,0.74,9.81,-0.20,-0.00,0.00,0.69,0.61,9.82,-0.20,-0.01,0.04,2.41,0.57,9.41,3938.4878,10552.4111,0.03
661165092,-0.20,-0.01,-0.00,0.33,0.74,9.87,-0.20,-0.01,0.00,0.56,0.90,9.77,-0.20,-0.01,-0.01,0.37,0.74,9.79,-0.20,-0.00,0.00,0.73,0.56,9.88,-0.19,-0.01,0.04,2.42,0.46,9.37,3938.4878,10552.4111,0.03
661169923,-0.19,-0.00,-0.00,0.33,0.73,9.86,-0.19,-0.01,0.00,0.55,0.98,9.81,-0.19,-0.01,-0.00,0.36,0.73,9.80,-0.19,0.01,0.01,0.67,0.55,9.99,-0.18,-0.01,0.04,2.46,0.42,9.95,3938.4878,10552.4111,0.03
661174689,-0.19,-0.00,-0.01,0.35,0.73,9.83,-0.18,-0.01,0.00,0.55,0.92,9.83,-0.18,-0.01,-0.00,0.39,0.70,9.76,-0.17,0.00,0.00,0.71,0.55,9.60,-0.17,-0.01,0.03,2.44,0.48,9.74,3938.4878,10552.4111,0.03
661179403,-0.18,-0.00,-0.00,0.34,0.72,9.80,-0.18,-0.01,0.00,0.57,0.95,9.80,-0.18,-0.01,-0.01,0.41,0.76,9.87,-0.18,-0.01,0.00,0.70,0.64,10.14,-0.18,-0.02,0.03,2.55,0.59,10.00,3938.4878,10552.4111,0.03
661184140,-0.18,-0.00,-0.00,0.35,0.65,9.85,-0.18,-0.01,0.00,0.54,0.93,9.84,-0.17,-0.01,-0.00,0.40,0.68,9.89,-0.17,-0.01,0.00,0.69,0.53,9.84,-0.17,-0.02,0.04,2.47,0.40,9.67,3938.4878,10552.4111,0.03
661188816,-0.16,-0.00,-0.00,0.32,0.71,9.84,-0.15,-0.01,0.00,0.57,0.94,9.86,-0.15,-0.01,-0.01,0.40,0.63,9.93,-0.14,-0.02,0.01,0.75,0.42,9.73,-0.13,-0.02,0.03,2.40,0.28,9.28,3938.4878,10552.4111,0.03
661193593,-0.15,-0.00,-0.01,0.37,0.73,9.87,-0.15,-0.01,0.00,0.57,0.96,9.74,-0.15,-0.01,-0.00,0.40,0.72,9.96,-0.14,-0.01,0.00,0.75,0.64,10.36,-0.14,-0.02,0.03,2.56,0.57,9.61,3938.4878,10552.4111,0.03
661198437,-0.16,-0.00,-0.00,0.38,0.71,9.84,-0.16,-0.01,0.00,0.59,0.95,9.78,-0.15,-0.01,-0.00,0.38,0.67,9.76,-0.16,-0.01,0.00,0.71,0.53,9.69,-0.15,-0.02,0.03,2.46,0.50,9.56,3938.4878,10552.4111,0.03
661203244,-0.15,-0.00,-0.01,0.36,0.66,9.82,-0.15,-0.01,0.00,0.59,0.87,9.79,-0.14,-0.01,-0.00,0.43,0.67,9.77,-0.14,-0.01,0.00,0.72,0.51,9.86,-0.14,-0.01,0.03,2.53,0.35,9.59,3938.4878,10552.4111,0.03
661208045,-0.13,-0.00,-0.00,0.39,0.65,9.78,-0.13,-0.01,0.00,0.58,0.92,9.83,-0.12,-0.01,-0.00,0.46,0.62,9.77,-0.11,-0.01,0.00,0.68,0.48,9.87,-0.11,-0.01,0.02,2.56,0.39,9.77,3938.4878,10552.4111,0.03
661212770,-0.13,-0.00,-0.00,0.41,0.65,9.88,-0.13,-0.01,0.00,0.61,0.92,9.84,-0.12,-0.01,-0.00,0.43,0.68,9.82,-0.12,-0.01,0.00,0.77,0.53,9.95,-0.12,-0.02,0.02,2.53,0.56,9.74,3938.4878,10552.4111,0.03
661217500,-0.13,-0.00,-0.00,0.38,0.60,9.75,-0.13,-0.01,-0.00,0.62,0.81,9.80,-0.13,-0.02,-0.00,0.46,0.62,9.91,-0.13,-0.01,0.00,0.79,0.51,10.02,-0.12,-0.02,0.03,2.49,0.47,9.62,3938.4878,10552.4111,0.03
661222239,-0.11,-0.00,-0.00,0.36,0.65,9.85,-0.10,-0.01,0.00,0.55,0.82,9.79,-0.09,-0.02,-0.00,0.43,0.52,9.82,-0.07,-0.02,0.00,0.77,0.29,9.49,-0.06,-0.02,0.01,2.45,0.09,9.57,3938.4878,10552.4111,0.03
661226981,-0.11,-0.00,-0.00,0.37,0.75,9.77,-0.11,-0.01,0.00,0.58,1.00,9.78,-0.09,-0.02,-0.00,0.40,0.71,10.04,-0.09,-0.02,0.00,0.76,0.57,10.43,-0.08,-0.02,0.01,2.60,0.66,9.84,3938.4878,10552.4111,0.03
661231733,-0.13,-0.01,-0.00,0.40,0.70,9.85,-0.12,-0.02,-0.00,0.62,0.95,9.76,-0.11,-0.02,-0.00,0.42,0.79,9.75,-0.11,-0.01,-0.00,0.75,0.64,9.87,-0.11,-0.02,0.02,2.51,0.51,9.67,3938.4878,10552.4111,0.03
661236258,-0.11,-0.01,-0.00,0.43,0.57,9.91,-0.11,-0.01,0.00,0.62,0.74,9.76,-0.09,-0.02,-0.00,0.46,0.45,9.70,-0.07,-0.02,-0.00,0.77,0.25,9.73,-0.06,-0.03,0.01,2.53,0.19,9.62,3938.4878,10552.4111,0.03
661240797,-0.11,-0.01,-0.00,0.36,0.70,9.79,-0.10,-0.01,0.00,0.63,0.95,9.75,-0.09,-0.02,-0.00,0.43,0.69,10.04,-0.09,-0.02,-0.00,0.78,0.61,10.17,-0.09,-0.02,0.01,2.55,0.53,9.63,3938.4878,10552.4111,0.03
661246263,-0.11,-0.01,-0.00,0.41,0.65,9.84,-0.10,-0.02,0.00,0.68,0.83,9.81,-0.09,-0.02,-0.00,0.51,0.62,9.82,-0.09,-0.02,-0.00,0.78,0.48,9.95,-0.08,-0.02,0.02,2.56,0.40,9.63,3938.4878,10552.4111,0.03
661250706,-0.09,-0.01,-0.00,0.45,0.61,9.87,-0.09,-0.02,0.00,0.64,0.84,9.84,-0.08,-0.02,-0.00,0.48,0.63,9.82,-0.08,-0.02,-0.00,0.76,0.50,9.85,-0.08,-0.03,0.02,2.57,0.36,9.71,3938.4878,10552.4111,0.03
661255063,-0.09,-0.01,-0.00,0.39,0.57,9.84,-0.08,-0.02,0.00,0.63,0.84,9.78,-0.07,-0.02,-0.00,0.49,0.59,9.82,-0.07,-0.02,0.00,0.82,0.44,9.80,-0.07,-0.03,0.01,2.54,0.43,9.47,3938.4878,10552.4111,0.03
661259437,-0.08,-0.01,-0.00,0.38,0.64,9.85,-0.07,-0.02,0.00,0.62,0.83,9.81,-0.06,-0.02,-0.00,0.46,0.65,9.87,-0.07,-0.02,-0.00,0.86,0.49,9.76,-0.06,-0.03,0.01,2.48,0.44,9.19,3938.4878,10552.4111,0.03
661264200,-0.07,-0.01,-0.00,0.38,0.65,9.87,-0.06,-0.01,-0.00,0.63,0.87,9.83,-0.05,-0.01,-0.00,0.45,0.59,9.71,-0.06,-0.01,0.00,0.80,0.45,9.63,-0.05,-0.02,0.01,2.44,0.39,9.11,3938.4878,10552.4111,0.03
661269002,-0.06,-0.01,-0.00,0.39,0.60,9.85,-0.05,-0.01,0.00,0.62,0.81,9.79,-0.04,-0.01,-0.00,0.46,0.59,9.81,-0.04,-0.00,-0.00,0.81,0.44,9.75,-0.04,-0.01,0.01,2.50,0.40,9.22,3938.4878,10552.4111,0.03
661273861,-0.06,-0.01,0.00,0.40,0.60,9.92,-0.05,-0.01,0.00,0.60,0.84,9.93,-0.04,-0.01,-0.00,0.41,0.59,9.82,-0.04,0.00,0.00,0.72,0.49,9.84,-0.04,0.00,0.01,2.49,0.42,9.41,3938.4878,10552.4111,0.03
661278652,-0.07,-0.01,-0.00,0.36,0.64,10.04,-0.06,-0.01,0.00,0.60,0.86,9.96,-0.05,-0.00,-0.00,0.44,0.65,9.95,-0.05,0.00,0.00,0.75,0.48,10.16,-0.04,0.00,0.01,2.53,0.50,9.70,3938.4878,10552.4111,0.03
661283416,-0.08,-0.01,-0.00,0.38,0.66,9.92,-0.08,-0.01,0.00,0.59,0.89,9.90,-0.07,-0.01,-0.00,0.43,0.61,10.05,-0.07,0.00,0.00,0.77,0.54,10.14,-0.07,0.00,0.02,2.58,0.52,10.01,3938.4878,10552.4111,0.03
661289381,-0.09,-0.01,-0.00,0.39,0.63,9.81,-0.09,-0.02,0.00,0.59,0.85,9.78,-0.08,-0.01,-0.00,0.45,0.59,9.88,-0.09,-0.01,0.00,0.77,0.49,10.06,-0.08,-0.02,0.02,2.56,0.39,10.09,3938.4878,10552.4111,0.03
661293972,-0.09,-0.01,-0.00,0.37,0.64,9.89,-0.09,-0.02,0.00,0.61,0.89,9.86,-0.09,-0.01,-0.00,0.44,0.63,9.95,-0.10,-0.02,0.00,0.73,0.47,10.07,-0.09,-0.03,0.02,2.53,0.39,9.88,3938.4878,10552.4111,0.03
661298613,-0.09,-0.01,-0.00,0.36,0.61,9.82,-0.10,-0.02,0.00,0.57,0.89,9.84,-0.10,-0.01,0.00,0.43,0.63,9.86,-0.10,-0.01,-0.00,0.73,0.45,9.94,-0.09,-0.03,0.02,2.48,0.43,9.46,3938.4878,10552.4111,0.03
661303321,-0.10,-0.01,0.00,0.39,0.59,9.91,-0.10,-0.02,0.00,0.59,0.86,9.85,-0.10,-0.02,0.00,0.41,0.60,9.89,-0.10,-0.01,0.00,0.74,0.44,9.88,-0.10,-0.02,0.02,2.46,0.37,9.30,3938.4878,10552.4111,0.03
661308087,-0.10,-0.01,-0.00,0.38,0.62,9.85,-0.10,-0.02,0.00,0.57,0.81,9.78,-0.10,-0.01,-0.00,0.42,0.58,9.81,-0.10,-0.01,0.00,0.72,0.46,9.72,-0.09,-0.01,0.02,2.44,0.33,9.32,3938.4878,10552.4111,0.03
661312924,-0.10,-0.01,-0.01,0.38,0.60,9.82,-0.10,-0.02,0.00,0.60,0.82,9.78,-0.09,-0.01,-0.00,0.39,0.57,9.84,-0.09,-0.00,-0.00,0.75,0.42,9.85,-0.09,-0.01,0.02,2.45,0.34,9.39,3938.4878,10552.4111,0.03
661317718,-0.10,-0.01,-0.00,0.39,0.60,9.85,-0.09,-0.02,0.00,0.60,0.81,9.83,-0.09,-0.01,-0.00,0.41,0.59,9.87,-0.09,-0.00,-0.00,0.73,0.44,9.92,-0.09,-0.01,0.02,2.48,0.38,9.57,3938.4878,10552.4111,0.03
661322493,-0.10,-0.01,-0.00,0.39,0.55,9.85,-0.09,-0.02,0.00,0.59,0.80,9.81,-0.10,-0.01,-0.00,0.40,0.57,9.85,-0.10,-0.00,0.00,0.78,0.42,9.92,-0.09,-0.01,0.02,2.51,0.38,9.69,3938.4878,10552.4111,0.03
661327259,-0.10,-0.01,-0.00,0.41,0.60,9.82,-0.09,-0.02,0.00,0.64,0.86,9.84,-0.09,-0.01,-0.00,0.45,0.59,9.90,-0.10,-0.01,0.00,0.79,0.45,9.96,-0.09,-0.02,0.02,2.56,0.36,9.75,3938.4878,10552.4111,0.03
661331464,-0.11,-0.02,-0.00,0.40,0.60,9.94,-0.11,-0.02,0.00,0.62,0.87,9.91,-0.10,-0.01,-0.00,0.47,0.61,9.95,-0.11,-0.01,0.00,0.77,0.44,10.12,-0.10,-0.02,0.02,2.55,0.42,9.74,3938.4878,10552.4111,0.03
661335830,-0.12,-0.02,-0.00,0.36,0.64,9.96,-0.12,-0.02,0.00,0.61,0.83,9.91,-0.12,-0.02,-0.00,0.45,0.59,9.95,-0.12,-0.01,0.00,0.75,0.46,10.04,-0.12,-0.02,0.02,2.56,0.44,9.81,3938.4878,10552.4111,0.03
661340281,-0.12,-0.02,0.00,0.39,0.54,9.82,-0.12,-0.02,0.00,0.62,0.77,9.75,-0.12,-0.02,-0.00,0.42,0.54,9.80,-0.13,-0.01,0.00,0.70,0.38,9.85,-0.12,-0.02,0.03,2.50,0.31,9.68,3938.4878,10552.4111,0.03
661349953,-0.11,-0.02,-0.00,0.39,0.53,9.81,-0.11,-0.02,0.00,0.58,0.77,9.81,-0.11,-0.02,-0.00,0.40,0.53,9.79,-0.12,-0.01,0.00,0.75,0.41,9.90,-0.11,-0.02,0.02,2.48,0.33,9.41,3938.4878,10552.4111,0.03
661354434,-0.11,-0.02,-0.00,0.38,0.56,9.87,-0.11,-0.02,0.00,0.58,0.78,9.83,-0.11,-0.02,-0.00,0.42,0.56,9.78,-0.11,-0.01,0.00,0.71,0.40,9.80,-0.11,-0.02,0.02,2.44,0.34,9.27,3938.4878,10552.4111,0.03
661358917,-0.11,-0.02,-0.00,0.37,0.57,9.84,-0.11,-0.02,0.00,0.60,0.79,9.77,-0.11,-0.01,-0.00,0.41,0.55,9.79,-0.11,-0.01,0.00,0.73,0.40,9.76,-0.10,-0.01,0.02,2.44,0.37,9.35,3938.4878,10552.4111,0.03
661363620,-0.11,-0.01,-0.00,0.38,0.50,9.80,-0.10,-0.02,0.00,0.59,0.75,9.77,-0.10,-0.01,-0.00,0.46,0.53,9.73,-0.10,-0.00,0.00,0.74,0.37,9.79,-0.10,-0.01,0.02,2.47,0.32,9.50,3938.4878,10552.4111,0.03
661368281,-0.10,-0.01,-0.00,0.39,0.52,9.80,-0.10,-0.02,0.00,0.62,0.76,9.80,-0.10,-0.01,-0.00,0.39,0.54,9.82,-0.10,-0.00,0.00,0.73,0.35,9.92,-0.10,-0.01,0.02,2.51,0.34,9.66,3938.4878,10552.4111,0.03
661372957,-0.10,-0.01,0.00,0.40,0.53,9.79,-0.10,-0.02,0.00,0.59,0.78,9.77,-0.10,-0.01,-0.00,0.37,0.52,9.91,-0.10,-0.01,0.00,0.70,0.37,9.94,-0.10,-0.01,0.02,2.52,0.34,9.72,3938.4878,10552.4111,0.03
661377738,-0.10,-0.01,0.00,0.37,0.52,9.86,-0.10,-0.02,0.00,0.58,0.74,9.83,-0.10,-0.01,-0.00,0.43,0.51,9.80,-0.10,-0.01,0.00,0.71,0.35,9.86,-0.10,-0.02,0.02,2.50,0.33,9.69,3938.4878,10552.4111,0.03
661382579,-0.10,-0.01,0.00,0.37,0.51,9.89,-0.10,-0.02,0.00,0.57,0.76,9.87,-0.10,-0.01,-0.00,0.41,0.47,9.82,-0.10,-0.01,0.00,0.70,0.36,9.86,-0.09,-0.02,0.02,2.51,0.27,9.54,3938.4878,10552.4111,0.03
661387357,-0.09,-0.01,0.00,0.38,0.53,9.81,-0.09,-0.02,0.00,0.58,0.79,9.77,-0.09,-0.01,-0.00,0.41,0.53,9.73,-0.10,-0.01,0.00,0.68,0.36,9.72,-0.09,-0.02,0.02,2.43,0.26,9.43,3938.4878,10552.4111,0.03
661392139,-0.08,-0.01,-0.00,0.32,0.49,9.85,-0.08,-0.02,0.00,0.56,0.75,9.73,-0.09,-0.01,-0.00,0.38,0.47,9.75,-0.09,-0.01,0.00,0.67,0.34,9.78,-0.08,-0.01,0.02,2.43,0.28,9.32,3938.4878,10552.4111,0.03
661396921,-0.08,-0.01,0.00,0.34,0.47,9.88,-0.08,-0.02,0.00,0.53,0.77,9.81,-0.08,-0.01,-0.00,0.38,0.53,9.82,-0.08,-0.00,0.00,0.69,0.41,9.87,-0.08,-0.01,0.02,2.44,0.31,9.42,3938.4304,10552.3740,0.31
661401578,-0.08,-0.01,-0.00,0.31,0.51,9.87,-0.08,-0.01,0.00,0.57,0.74,9.82,-0.09,-0.01,-0.00,0.39,0.53,9.80,-0.08,0.00,0.00,0.68,0.38,9.79,-0.08,-0.00,0.02,2.42,0.31,9.50,3938.4304,10552.3740,0.31
661406230,-0.08,-0.01,-0.00,0.37,0.50,9.79,-0.08,-0.01,0.00,0.53,0.75,9.78,-0.08,-0.01,-0.00,0.38,0.49,9.81,-0.08,-0.00,0.00,0.73,0.34,9.83,-0.07,-0.01,0.02,2.44,0.26,9.68,3938.4304,10552.3740,0.31
661410872,-0.08,-0.01,-0.00,0.36,0.53,9.81,-0.08,-0.01,0.00,0.57,0.79,9.83,-0.08,-0.01,-0.00,0.42,0.54,9.90,-0.08,-0.00,0.00,0.75,0.35,9.94,-0.07,-0.01,0.02,2.52,0.30,9.75,3938.4304,10552.3740,0.31
661415669,-0.08,-0.01,-0.00,0.33,0.48,9.88,-0.08,-0.01,0.00,0.55,0.79,9.85,-0.08,-0.01,-0.00,0.43,0.52,9.91,-0.08,-0.01,-0.00,0.71,0.36,10.02,-0.08,-0.01,0.02,2.47,0.36,9.74,3938.4304,10552.3740,0.31
661420530,-0.08,-0.01,-0.00,0.35,0.50,9.82,-0.09,-0.01,0.00,0.55,0.76,9.82,-0.09,-0.01,-0.00,0.40,0.56,9.83,-0.09,-0.01,0.00,0.69,0.40,9.96,-0.09,-0.01,0.02,2.46,0.32,9.66,3938.4304,10552.3740,0.31
661425381,-0.08,-0.01,0.00,0.37,0.47,9.84,-0.08,-0.01,0.00,0.53,0.71,9.74,-0.09,-0.01,-0.00,0.39,0.52,9.81,-0.09,-0.01,0.00,0.71,0.33,9.89,-0.08,-0.02,0.02,2.45,0.26,9.62,3938.4304,10552.3740,0.31
661430203,-0.08,-0.01,-0.00,0.35,0.50,9.85,-0.09,-0.01,0.00,0.55,0.75,9.79,-0.09,-0.01,-0.00,0.42,0.51,9.83,-0.08,-0.01,0.01,0.73,0.35,9.91,-0.08,-0.02,0.02,2.46,0.25,9.60,3938.4304,10552.3740,0.31
661435723,-0.09,-0.01,0.00,0.39,0.52,9.97,-0.09,-0.01,0.01,0.64,0.75,9.90,-0.09,-0.01,-0.00,0.44,0.53,9.91,-0.09,-0.01,0.00,0.77,0.37,9.93,-0.09,-0.01,0.02,2.51,0.34,9.51,3938.4304,10552.3740,0.31
661440147,-0.10,-0.02,0.00,0.40,0.50,9.86,-0.10,-0.01,0.00,0.64,0.77,9.84,-0.10,-0.01,-0.00,0.47,0.46,9.90,-0.10,-0.01,0.00,0.80,0.35,9.93,-0.09,-0.01,0.02,2.56,0.28,9.58,3938.4304,10552.3740,0.31
661444592,-0.10,-0.02,0.00,0.42,0.53,9.90,-0.10,-0.02,0.00,0.64,0.75,9.79,-0.10,-0.01,-0.00,0.46,0.53,9.94,-0.10,-0.00,0.00,0.81,0.34,9.92,-0.10,-0.01,0.02,2.57,0.24,9.62,3938.4304,10552.3740,0.31
661449918,-0.10,-0.02,0.00,0.43,0.51,9.85,-0.11,-0.02,0.00,0.62,0.72,9.73,-0.11,-0.01,0.00,0.46,0.51,9.81,-0.11,-0.01,0.00,0.80,0.33,9.94,-0.11,-0.01,0.02,2.56,0.27,9.67,3938.4304,10552.3740,0.31
661454404,-0.10,-0.02,0.00,0.46,0.41,9.84,-0.10,-0.02,0.00,0.66,0.66,9.81,-0.10,-0.01,-0.00,0.55,0.44,9.80,-0.10,-0.01,0.00,0.79,0.32,9.93,-0.10,-0.02,0.02,2.61,0.23,9.69,3938.4304,10552.3740,0.31
661458917,-0.10,-0.02,-0.00,0.44,0.46,9.85,-0.11,-0.01,0.00,0.65,0.69,9.84,-0.11,-0.01,-0.00,0.45,0.51,9.90,-0.11,-0.01,0.00,0.79,0.31,9.96,-0.10,-0.02,0.02,2.57,0.30,9.57,3938.4304,10552.3740,0.31
661463723,-0.11,-0.02,-0.00,0.44,0.43,9.78,-0.11,-0.02,0.01,0.68,0.68,9.75,-0.11,-0.01,-0.00,0.51,0.39,9.79,-0.11,-0.01,0.00,0.78,0.28,9.85,-0.11,-0.02,0.02,2.53,0.17,9.61,3938.4304,10552.3740,0.31
661468493,-0.10,-0.02,-0.00,0.40,0.43,9.98,-0.11,-0.02,0.00,0.58,0.65,9.91,-0.10,-0.01,-0.00,0.45,0.40,9.95,-0.10,-0.01,0.00,0.75,0.20,9.76,-0.10,-0.02,0.02,2.51,0.15,9.42,3938.4304,10552.3740,0.31
661473217,-0.10,-0.02,-0.00,0.37,0.39,9.86,-0.11,-0.01,0.00,0.59,0.65,9.92,-0.11,-0.01,-0.00,0.42,0.40,9.94,-0.11,-0.01,0.00,0.77,0.29,9.90,-0.11,-0.01,0.02,2.50,0.27,9.38,3938.4304,10552.3740,0.31
661477920,-0.10,-0.01,-0.00,0.34,0.40,9.76,-0.11,-0.01,0.00,0.59,0.61,9.66,-0.11,-0.01,0.00,0.39,0.43,9.73,-0.11,-0.01,0.00,0.71,0.28,9.77,-0.11,-0.01,0.02,2.45,0.17,9.51,3938.4304,10552.3740,0.31
661482628,-0.09,-0.01,0.00,0.38,0.29,9.70,-0.09,-0.01,0.00,0.58,0.57,9.56,-0.09,-0.01,-0.00,0.40,0.30,9.55,-0.09,-0.01,0.00,0.71,0.17,9.58,-0.09,-0.02,0.02,2.43,0.08,9.42,3938.4304,10552.3740,0.31
661487360,-0.07,-0.01,0.00,0.33,0.42,9.80,-0.07,-0.01,0.00,0.51,0.61,9.71,-0.07,-0.01,-0.00,0.36,0.36,9.75,-0.07,-0.01,0.00,0.67,0.22,9.72,-0.06,-0.02,0.01,2.39,0.12,9.34,3938.4304,10552.3740,0.31
661492078,-0.07,-0.01,0.00,0.32,0.38,9.86,-0.07,-0.01,0.00,0.52,0.67,9.84,-0.07,-0.01,-0.00,0.35,0.42,9.91,-0.07,-0.01,0.00,0.69,0.31,9.83,-0.07,-0.01,0.02,2.42,0.24,9.31,3938.4304,10552.3740,0.31
661496835,-0.07,-0.01,0.00,0.35,0.41,9.79,-0.07,-0.01,0.00,0.60,0.63,9.81,-0.07,-0.00,-0.00,0.41,0.42,9.78,-0.07,-0.00,0.00,0.70,0.24,9.73,-0.07,-0.00,0.01,2.42,0.19,9.38,3938.4304,10552.3740,0.31
661501615,-0.07,-0.01,0.00,0.34,0.41,9.83,-0.07,-0.01,0.00,0.57,0.63,9.76,-0.07,-0.00,-0.00,0.43,0.37,9.79,-0.07,0.00,-0.00,0.75,0.20,9.72,-0.06,-0.00,0.01,2.46,0.14,9.41,3938.4304,10552.3740,0.31
661506410,-0.07,-0.01,-0.00,0.38,0.44,9.88,-0.07,-0.01,0.00,0.64,0.63,9.93,-0.06,-0.00,-0.00,0.47,0.40,9.92,-0.06,0.00,0.00,0.80,0.22,10.00,-0.05,-0.00,0.01,2.57,0.17,9.59,3938.4304,10552.3740,0.31
661511176,-0.07,-0.01,-0.00,0.41,0.44,9.90,-0.08,-0.01,0.00,0.68,0.69,9.90,-0.08,-0.00,-0.00,0.47,0.52,10.01,-0.08,0.00,0.00,0.85,0.29,10.04,-0.08,0.00,0.02,2.57,0.28,9.74,3938.4304,10552.3740,0.31
661515821,-0.09,-0.01,-0.00,0.44,0.43,9.85,-0.09,-0.01,0.00,0.65,0.68,9.84,-0.09,-0.01,-0.00,0.46,0.40,9.88,-0.09,0.00,0.00,0.83,0.23,10.12,-0.08,-0.00,0.02,2.58,0.17,9.96,3938.4304,10552.3740,0.31
661520469,-0.08,-0.01,-0.01,0.46,0.42,9.86,-0.09,-0.01,0.00,0.66,0.60,9.74,-0.09,-0.01,-0.00,0.51,0.36,9.83,-0.09,-0.01,0.00,0.82,0.21,9.85,-0.09,-0.01,0.02,2.56,0.10,9.86,3938.4304,10552.3740,0.31
661525215,-0.08,-0.01,-0.00,0.45,0.38,9.85,-0.09,-0.01,-0.00,0.68,0.58,9.75,-0.09,-0.01,-0.00,0.50,0.39,9.85,-0.08,-0.01,0.00,0.82,0.21,10.09,-0.08,-0.02,0.01,2.62,0.12,9.86,3938.4304,10552.3740,0.31
661530004,-0.09,-0.01,0.00,0.46,0.38,9.79,-0.09,-0.01,0.00,0.63,0.63,9.80,-0.09,-0.01,-0.00,0.49,0.40,9.84,-0.10,-0.01,0.00,0.79,0.28,9.97,-0.09,-0.02,0.02,2.57,0.19,9.57,3938.4304,10552.3740,0.31
661534477,-0.08,-0.01,-0.00,0.44,0.36,9.80,-0.08,-0.01,-0.00,0.64,0.57,9.73,-0.09,-0.01,-0.00,0.46,0.36,9.73,-0.09,-0.02,-0.00,0.83,0.17,9.62,-0.08,-0.02,0.02,2.51,0.00,9.31,3938.4304,10552.3740,0.31
661538962,-0.07,-0.00,-0.01,0.43,0.38,9.82,-0.07,-0.01,-0.00,0.62,0.61,9.73,-0.07,-0.01,-0.00,0.43,0.39,9.74,-0.07,-0.01,-0.00,0.79,0.18,9.69,-0.07,-0.02,0.01,2.51,0.11,9.18,3938.4304,10552.3740,0.31
661544364,-0.08,-0.01,0.00,0.37,0.41,9.98,-0.07,-0.01,0.00,0.62,0.65,9.92,-0.08,-0.01,-0.00,0.43,0.37,9.88,-0.07,-0.00,-0.00,0.77,0.23,9.77,-0.07,-0.01,0.01,2.49,0.18,9.10,3938.4304,10552.3740,0.31
661548778,-0.08,-0.01,0.00,0.36,0.41,9.91,-0.08,-0.01,-0.00,0.56,0.57,9.82,-0.08,-0.00,-0.01,0.43,0.37,9.84,-0.08,0.01,-0.00,0.74,0.19,9.67,-0.08,0.00,0.02,2.43,0.19,9.26,3938.4304,10552.3740,0.31
661553129,-0.08,-0.01,0.00,0.34,0.39,9.80,-0.08,-0.01,-0.00,0.56,0.60,9.74,-0.08,-0.00,-0.00,0.40,0.36,9.76,-0.07,0.01,0.00,0.72,0.22,9.78,-0.07,0.01,0.01,2.45,0.11,9.47,3938.4304,10552.3740,0.31
661557485,-0.08,-0.01,-0.00,0.36,0.41,9.93,-0.08,-0.01,0.00,0.58,0.62,9.92,-0.08,-0.00,-0.00,0.43,0.37,9.96,-0.07,0.01,-0.00,0.75,0.24,9.88,-0.07,0.01,0.01,2.49,0.18,9.63,3938.4304,10552.3740,0.31
661562251,-0.08,-0.01,-0.00,0.41,0.43,9.90,-0.09,-0.01,0.00,0.64,0.63,9.90,-0.08,-0.00,-0.00,0.43,0.39,9.99,-0.09,0.01,-0.00,0.75,0.24,10.17,-0.08,0.00,0.02,2.59,0.24,9.89,3938.4304,10552.3740,0.31
661567071,-0.09,-0.01,-0.00,0.43,0.40,9.82,-0.09,-0.01,0.00,0.65,0.62,9.77,-0.10,-0.00,-0.00,0.46,0.34,9.82,-0.10,0.00,-0.00,0.77,0.16,10.13,-0.09,-0.01,0.02,2.62,0.12,10.08,3938.4304,10552.3740,0.31
661571886,-0.09,-0.01,-0.00,0.46,0.39,9.85,-0.09,-0.01,0.00,0.66,0.56,9.78,-0.09,-0.01,-0.01,0.44,0.30,9.78,-0.09,-0.01,0.00,0.79,0.17,9.94,-0.09,-0.02,0.02,2.59,0.05,9.93,3938.4304,10552.3740,0.31
661576677,-0.10,-0.01,-0.00,0.43,0.46,10.22,-0.10,-0.01,-0.00,0.65,0.69,10.14,-0.10,-0.01,-0.01,0.47,0.37,9.96,-0.10,-0.01,-0.00,0.76,0.20,10.14,-0.09,-0.02,0.02,2.63,0.17,9.82,3938.4304,10552.3740,0.31
661582591,-0.12,-0.01,-0.00,0.43,0.39,9.80,-0.13,-0.01,-0.00,0.66,0.61,9.93,-0.13,-0.01,-0.00,0.48,0.40,10.06,-0.14,-0.01,-0.00,0.80,0.27,9.96,-0.14,-0.01,0.03,2.56,0.23,9.53,3938.4304,10552.3740,0.31
661587718,-0.12,-0.01,-0.00,0.41,0.28,9.66,-0.12,-0.01,-0.00,0.62,0.52,9.60,-0.12,-0.01,-0.01,0.47,0.29,9.46,-0.12,-0.01,-0.00,0.73,0.09,9.55,-0.12,-0.02,0.02,2.47,-0.17,9.36,3938.4304,10552.3740,0.31
661592402,-0.10,-0.00,-0.00,0.46,0.31,9.78,-0.10,-0.01,0.00,0.64,0.52,9.67,-0.10,-0.01,-0.00,0.48,0.26,9.61,-0.09,-0.01,-0.00,0.80,0.14,9.67,-0.08,-0.02,0.01,2.48,0.05,9.22,3938.4304,10552.3740,0.31
661597087,-0.10,-0.01,-0.01,0.43,0.36,9.85,-0.10,-0.01,-0.00,0.64,0.58,9.79,-0.10,-0.01,-0.00,0.43,0.37,9.91,-0.10,-0.00,-0.00,0.75,0.22,9.92,-0.09,-0.01,0.02,2.56,0.23,9.23,3938.4304,10552.3740,0.31
661601774,-0.10,-0.01,-0.00,0.39,0.35,9.81,-0.10,-0.01,0.00,0.60,0.54,9.69,-0.10,-0.00,-0.00,0.43,0.32,9.66,-0.10,0.00,-0.00,0.77,0.16,9.56,-0.10,0.00,0.02,2.42,0.12,9.29,3938.4304,10552.3740,0.31
661606514,-0.09,-0.00,-0.00,0.36,0.29,9.69,-0.08,-0.01,0.00,0.59,0.52,9.60,-0.08,-0.00,-0.01,0.41,0.24,9.60,-0.08,0.00,0.00,0.70,0.09,9.59,-0.07,0.00,0.01,2.45,-0.05,9.42,3938.4304,10552.3740,0.31
661611339,-0.08,-0.00,-0.00,0.33,0.35,9.87,-0.08,-0.01,-0.00,0.53,0.63,9.92,-0.08,0.00,-0.01,0.37,0.39,9.92,-0.07,0.00,-0.00,0.70,0.23,10.03,-0.07,-0.00,0.01,2.50,0.15,9.59,3938.4304,10552.3740,0.31
661616132,-0.09,-0.01,-0.00,0.34,0.33,9.90,-0.09,-0.01,-0.00,0.55,0.58,9.90,-0.09,-0.00,-0.00,0.41,0.36,9.99,-0.09,0.01,0.00,0.70,0.23,9.96,-0.09,0.00,0.02,2.49,0.22,9.73,3938.4304,10552.3740,0.31
661620495,-0.09,-0.01,-0.01,0.36,0.35,9.79,-0.09,-0.01,-0.00,0.58,0.57,9.79,-0.09,-0.00,-0.00,0.43,0.31,9.79,-0.09,0.00,0.00,0.72,0.13,9.94,-0.09,-0.00,0.01,2.55,0.02,9.87,3938.4304,10552.3740,0.31
661625211,-0.08,-0.01,-0.01,0.38,0.31,9.84,-0.09,-0.01,-0.00,0.62,0.55,9.80,-0.09,-0.00,-0.00,0.44,0.27,9.75,-0.08,-0.00,-0.00,0.78,0.12,9.89,-0.08,-0.01,0.01,2.53,0.02,9.86,3938.4304,10552.3740,0.31
661629566,-0.08,-0.01,-0.00,0.41,0.29,9.89,-0.09,-0.01,0.00,0.61,0.54,9.91,-0.09,-0.01,-0.00,0.46,0.28,9.97,-0.09,-0.01,-0.00,0.76,0.19,10.03,-0.08,-0.02,0.01,2.56,0.18,9.77,3938.4304,10552.3740,0.31
661633989,-0.09,-0.00,-0.00,0.45,0.37,9.87,-0.10,-0.01,-0.00,0.61,0.63,9.90,-0.10,-0.01,-0.01,0.49,0.34,9.86,-0.10,-0.01,-0.00,0.78,0.16,9.99,-0.10,-0.02,0.02,2.53,0.18,9.55,3938.4304,10552.3740,0.31
661638452,-0.09,-0.01,-0.00,0.39,0.27,9.74,-0.10,-0.01,0.00,0.62,0.56,9.72,-0.10,-0.01,-0.00,0.43,0.30,9.79,-0.10,-0.01,-0.00,0.76,0.15,9.77,-0.10,-0.01,0.02,2.50,0.05,9.47,3938.4304,10552.3740,0.31
661643834,-0.09,-0.01,-0.01,0.36,0.30,9.85,-0.09,-0.01,0.00,0.58,0.55,9.79,-0.09,-0.01,-0.01,0.46,0.30,9.74,-0.09,-0.00,-0.00,0.76,0.14,9.72,-0.08,-0.01,0.01,2.44,0.02,9.36,3938.4304,10552.3740,0.31
661648331,-0.09,-0.00,-0.01,0.36,0.34,9.93,-0.09,-0.01,-0.00,0.62,0.55,9.86,-0.09,-0.01,-0.00,0.43,0.28,9.90,-0.09,0.00,-0.00,0.75,0.13,9.85,-0.09,-0.01,0.02,2.45,0.12,9.35,3938.4304,10552.3740,0.31
661652829,-0.10,-0.01,-0.00,0.33,0.29,9.85,-0.10,-0.01,0.00,0.58,0.52,9.87,-0.10,-0.00,-0.00,0.38,0.35,9.93,-0.10,0.00,-0.00,0.70,0.21,9.89,-0.09,0.00,0.02,2.47,0.13,9.44,3938.4304,10552.3740,0.31
661657589,-0.10,-0.00,-0.01,0.29,0.21,9.84,-0.10,-0.01,-0.00,0.48,0.51,9.79,-0.10,-0.01,-0.01,0.36,0.26,9.79,-0.09,0.00,-0.00,0.67,0.12,9.82,-0.09,0.00,0.02,2.43,0.02,9.64,3938.4304,10552.3740,0.31
661662235,-0.09,-0.01,-0.00,0.31,0.25,9.85,-0.10,-0.01,-0.00,0.49,0.46,9.80,-0.10,-0.01,-0.00,0.35,0.23,9.77,-0.09,0.00,-0.00,0.63,0.07,9.90,-0.09,-0.01,0.02,2.42,0.06,9.76,3938.4304,10552.3740,0.31
661666882,-0.09,-0.00,-0.00,0.28,0.24,9.81,-0.10,-0.01,-0.00,0.47,0.47,9.87,-0.10,-0.00,-0.01,0.33,0.21,9.92,-0.09,-0.00,-0.00,0.61,0.09,10.04,-0.09,-0.01,0.02,2.42,0.02,9.78,3938.4304,10552.3740,0.31
661671618,-0.10,-0.00,-0.01,0.35,0.30,9.85,-0.10,-0.01,-0.00,0.57,0.53,9.80,-0.10,-0.01,-0.00,0.42,0.33,9.84,-0.10,-0.00,-0.00,0.71,0.18,9.98,-0.10,-0.01,0.02,2.47,0.08,9.70,3938.4304,10552.3740,0.31
661676319,-0.10,-0.01,-0.00,0.39,0.20,9.93,-0.11,-0.01,-0.00,0.61,0.43,9.93,-0.10,-0.01,-0.01,0.44,0.16,9.93,-0.10,-0.01,-0.00,0.76,0.01,9.83,-0.10,-0.02,0.02,2.53,-0.03,9.63,3938.4304,10552.3740,0.31
661681126,-0.10,-0.01,-0.01,0.42,0.23,9.94,-0.10,-0.01,-0.00,0.62,0.49,9.84,-0.10,-0.01,-0.01,0.45,0.25,9.95,-0.10,-0.01,-0.00,0.80,0.12,9.81,-0.10,-0.01,0.02,2.48,0.01,9.29,3938.4304,10552.3740,0.31
661685899,-0.11,-0.01,-0.01,0.35,0.31,9.85,-0.11,-0.01,-0.00,0.57,0.53,9.86,-0.11,-0.01,-0.01,0.41,0.27,9.92,-0.10,-0.00,-0.00,0.69,0.12,9.94,-0.10,-0.01,0.02,2.50,0.07,9.34,3938.4304,10552.3740,0.31
661690637,-0.11,-0.01,-0.01,0.31,0.26,9.92,-0.11,-0.01,-0.01,0.54,0.47,9.94,-0.11,-0.00,-0.01,0.34,0.21,9.92,-0.11,0.00,-0.01,0.70,0.04,9.94,-0.11,-0.00,0.02,2.44,-0.06,9.54,3938.4304,10552.3740,0.31
661695364,-0.12,-0.00,-0.01,0.33,0.29,9.92,-0.12,-0.01,-0.00,0.55,0.49,9.93,-0.12,-0.01,-0.01,0.36,0.27,9.98,-0.12,0.00,-0.00,0.68,0.07,9.91,-0.11,-0.00,0.01,2.45,-0.03,9.66,3938.4304,10552.3740,0.31
661699975,-0.13,-0.01,-0.01,0.39,0.23,9.95,-0.13,-0.01,-0.01,0.61,0.55,9.95,-0.13,-0.01,-0.01,0.42,0.29,10.02,-0.12,-0.00,-0.00,0.73,0.15,10.05,-0.12,-0.01,0.02,2.55,0.13,9.78,3938.4304,10552.3740,0.31
661704680,-0.14,-0.01,0.00,0.31,0.48,9.95,-0.14,-0.01,-0.01,0.54,0.90,9.99,-0.14,-0.01,-0.01,0.42,0.32,10.22,-0.14,-0.00,-0.01,0.74,-0.22,10.22,-0.14,-0.01,0.02,2.59,-0.38,9.85,3938.4304,10552.3740,0.31
661709370,-0.16,-0.01,-0.00,0.30,0.35,10.00,-0.17,-0.01,-0.01,0.52,0.49,9.97,-0.17,-0.01,-0.01,0.35,0.14,10.06,-0.17,-0.00,-0.01,0.71,-0.11,10.06,-0.16,-0.01,0.02,2.54,-0.16,9.87,3938.4304,10552.3740,0.31
661714100,-0.18,-0.01,-0.02,0.17,0.30,10.09,-0.18,-0.01,-0.01,0.41,0.49,10.08,-0.18,-0.01,-0.02,0.26,0.23,10.02,-0.18,-0.01,-0.01,0.58,0.08,10.15,-0.17,-0.02,0.03,2.38,-0.02,10.00,3938.4304,10552.3740,0.31
661718926,-0.20,-0.01,-0.02,0.15,0.39,9.99,-0.20,-0.01,-0.01,0.37,0.58,10.06,-0.20,-0.02,-0.02,0.20,0.21,10.03,-0.20,-0.01,-0.01,0.53,-0.01,10.19,-0.20,-0.02,0.03,2.35,-0.17,9.95,3938.4304,10552.3740,0.31
661723422,-0.21,-0.01,-0.02,0.07,0.29,9.93,-0.21,-0.01,-0.02,0.28,0.44,9.84,-0.21,-0.02,-0.02,0.09,0.06,9.82,-0.22,-0.01,-0.02,0.37,-0.23,9.97,-0.21,-0.02,0.03,2.19,-0.43,9.74,3938.4304,10552.3740,0.31
661729148,-0.21,-0.01,-0.03,-0.05,0.36,9.75,-0.21,-0.01,-0.02,0.18,0.40,9.83,-0.21,-0.01,-0.03,0.04,0.01,9.82,-0.21,-0.01,-0.02,0.31,-0.20,9.63,-0.21,-0.03,0.02,2.08,-0.43,9.62,3938.4304,10552.3740,0.31
661733931,-0.20,-0.01,-0.04,-0.24,0.65,9.67,-0.20,-0.02,-0.03,0.00,0.61,9.74,-0.20,-0.02,-0.04,-0.17,0.07,9.85,-0.21,-0.01,-0.03,0.17,-0.41,9.92,-0.21,-0.02,0.01,1.91,-0.98,9.42,3938.4304,10552.3740,0.31
661744033,-0.16,-0.01,-0.06,-0.40,1.10,9.43,-0.17,-0.02,-0.06,-0.17,0.89,9.47,-0.17,-0.01,-0.07,-0.34,0.11,9.26,-0.17,-0.00,-0.06,-0.06,-0.43,9.58,-0.18,-0.01,-0.03,1.65,-1.07,9.36,3938.4304,10552.3740,0.31
661748708,-0.13,-0.01,-0.08,-0.58,1.29,9.45,-0.13,-0.01,-0.08,-0.36,1.15,9.40,-0.12,-0.01,-0.09,-0.44,0.31,9.34,-0.13,-0.01,-0.08,-0.15,-0.64,9.30,-0.14,-0.02,-0.05,1.59,-1.71,9.29,3938.4304,10552.3740,0.31
661753392,-0.08,-0.01,-0.11,-0.59,1.76,9.18,-0.08,-0.02,-0.10,-0.35,1.46,9.16,-0.09,-0.01,-0.12,-0.52,0.75,8.95,-0.09,-0.01,-0.11,-0.21,0.10,9.11,-0.11,-0.01,-0.09,1.33,-0.42,8.95,3938.4304,10552.3740,0.31
661758445,-0.03,-0.01,-0.15,-0.59,1.12,9.64,-0.03,-0.01,-0.13,-0.31,0.27,9.39,-0.04,0.00,-0.14,-0.53,-1.06,9.99,-0.04,0.00,-0.13,-0.13,-1.95,9.93,-0.06,-0.01,-0.12,1.57,-2.53,9.24,3938.4304,10552.3740,0.31
661763502,-0.02,-0.01,-0.16,-0.43,0.99,9.74,-0.03,-0.01,-0.17,-0.26,0.75,9.59,-0.02,0.00,-0.16,-0.45,0.12,9.54,-0.02,0.01,-0.16,-0.24,-0.29,8.72,-0.05,0.02,-0.17,1.49,-1.29,8.66,3938.4304,10552.3740,0.31
661768467,-0.01,-0.00,-0.21,-0.97,1.67,10.02,-0.01,-0.02,-0.20,-0.51,0.73,9.42,-0.02,-0.00,-0.21,-0.78,-0.84,9.59,-0.03,0.02,-0.21,-0.50,-1.80,10.51,-0.07,0.03,-0.19,1.77,-2.41,9.45,3938.4304,10552.3740,0.31
661773416,-0.05,0.00,-0.25,-1.26,4.02,9.00,-0.04,-0.01,-0.23,-0.84,3.65,9.77,-0.02,0.01,-0.23,-1.02,1.92,9.95,-0.00,0.02,-0.22,-0.67,-0.13,10.16,-0.04,0.01,-0.22,1.08,-2.22,10.13,3938.4304,10552.3740,0.31
661778310,-0.04,-0.01,-0.19,-0.77,1.06,11.00,-0.04,-0.02,-0.25,-0.35,1.65,10.14,-0.04,-0.00,-0.25,-0.64,1.52,9.98,-0.05,0.02,-0.25,-0.26,1.56,10.59,-0.09,0.01,-0.24,1.62,1.39,9.51,3938.4304,10552.3740,0.31
661783250,-0.07,-0.02,-0.26,-0.77,3.66,9.18,-0.08,-0.03,-0.26,-0.75,2.85,8.75,-0.08,-0.00,-0.26,-0.87,1.52,10.24,-0.09,0.00,-0.25,-0.45,0.35,11.15,-0.14,0.01,-0.25,1.65,0.21,10.39,3938.4304,10552.3740,0.31
661788197,-0.12,-0.02,-0.28,-0.53,0.95,11.28,-0.13,-0.03,-0.28,-0.23,0.13,9.12,-0.12,-0.01,-0.30,-0.40,-1.29,9.77,-0.13,0.01,-0.27,-0.09,-1.36,10.84,-0.16,-0.02,-0.25,2.17,-0.60,11.11,3938.4304,10552.3740,0.31
661793190,-0.13,-0.02,-0.33,-0.71,-0.18,10.03,-0.15,-0.03,-0.32,-0.55,-0.11,8.49,-0.14,-0.04,-0.31,-0.86,0.39,9.84,-0.17,-0.02,-0.30,-0.62,0.35,9.45,-0.24,-0.02,-0.28,1.47,-0.47,11.24,3938.4304,10552.3740,0.31
661798227,-0.14,-0.06,-0.37,-0.33,-1.52,8.77,-0.15,-0.04,-0.32,-0.55,-2.93,10.16,-0.14,-0.03,-0.32,0.06,-4.09,10.27,-0.16,-0.03,-0.32,-0.01,-5.54,11.85,-0.20,-0.07,-0.29,2.27,-5.21,9.11,3938.4304,10552.3740,0.31
661803241,-0.18,-0.02,-0.28,-0.41,0.67,10.23,-0.20,-0.04,-0.35,-0.46,1.76,11.18,-0.19,-0.04,-0.34,-0.35,1.43,10.00,-0.15,-0.02,-0.34,-0.41,0.65,8.51,-0.15,-0.04,-0.32,1.77,-0.94,11.49,3938.4304,10552.3740,0.31
661808265,-0.11,-0.02,-0.34,0.08,1.88,11.36,-0.12,-0.04,-0.36,0.18,-0.43,9.39,-0.10,-0.01,-0.39,-0.76,-1.06,9.61,-0.17,-0.06,-0.38,-0.24,-1.90,9.53,-0.27,-0.07,-0.32,0.33,-2.50,7.27,3938.4304,10552.3740,0.31
661813150,-0.07,0.00,-0.43,0.73,4.26,8.87,-0.06,-0.02,-0.37,0.82,5.52,10.42,-0.03,-0.05,-0.36,1.47,2.61,8.83,-0.03,-0.05,-0.40,1.27,0.37,7.11,-0.09,-0.01,-0.37,3.40,0.10,8.58,3938.4304,10552.3740,0.31
661818041,-0.08,-0.00,-0.35,-1.14,4.13,10.40,-0.06,-0.01,-0.37,-0.29,2.21,11.14,-0.01,-0.00,-0.37,-0.42,4.88,6.45,-0.03,0.01,-0.37,-0.25,7.60,12.13,-0.11,-0.07,-0.34,1.87,9.63,8.81,3938.4304,10552.3740,0.31
661822994,-0.10,0.00,-0.35,-0.70,1.53,5.24,-0.12,-0.04,-0.31,-0.93,3.43,8.94,-0.21,-0.00,-0.28,-1.16,1.42,10.82,-0.26,0.02,-0.29,-0.26,0.95,8.99,-0.34,0.08,-0.24,0.58,-3.05,12.11,3938.4304,10552.3740,0.31
661827726,-0.19,0.01,-0.19,0.74,6.51,8.63,-0.16,-0.00,-0.26,0.73,8.98,6.05,-0.09,0.05,-0.31,-0.25,8.64,10.74,0.04,0.01,-0.27,1.39,8.74,2.41,0.12,0.06,-0.28,1.38,8.20,13.56,3938.4304,10552.3740,0.31
661832494,0.09,0.03,-0.28,0.17,1.14,9.92,0.09,0.00,-0.26,0.57,4.32,11.96,0.06,0.01,-0.28,-0.52,9.24,13.90,-0.05,-0.02,-0.25,0.48,11.77,8.34,-0.19,-0.02,-0.24,0.85,9.33,8.34,3938.4304,10552.3740,0.31
661837221,-0.05,-0.04,-0.24,0.22,7.13,6.68,-0.06,-0.03,-0.16,0.47,3.93,8.58,-0.05,0.04,-0.10,-0.04,2.39,7.97,0.00,0.05,-0.19,-0.16,2.99,12.83,0.06,0.06,-0.20,2.42,4.20,11.33,3938.4304,10552.3740,0.31
661843038,-0.11,-0.05,-0.21,-0.54,3.03,10.39,-0.15,-0.02,-0.12,0.00,1.39,10.63,-0.16,-0.01,-0.08,-1.16,1.48,9.16,-0.17,0.02,-0.09,-0.67,3.47,12.38,-0.18,0.02,-0.11,1.34,3.34,12.25,3938.4304,10552.3740,0.31
661847701,-0.04,-0.01,-0.25,-0.47,-2.94,10.48,-0.02,0.01,-0.15,-0.42,-3.63,8.43,-0.00,-0.03,-0.17,-0.09,-1.06,9.82,0.01,0.02,-0.17,0.14,0.98,5.86,-0.00,-0.07,-0.16,2.28,5.98,9.52,3938.4304,10552.3740,0.31
661852321,-0.03,-0.00,-0.15,-0.10,2.26,11.14,0.02,-0.09,-0.09,0.48,0.61,10.11,0.04,-0.01,-0.13,-0.10,1.90,11.99,0.02,-0.04,-0.08,0.73,1.60,11.40,0.09,-0.06,-0.11,2.55,4.22,11.85,3938.4304,10552.3740,0.31
661857255,-0.17,-0.02,0.04,0.93,-4.99,11.71,-0.22,-0.06,-0.04,1.30,-2.09,11.49,-0.20,-0.03,-0.08,1.64,2.90,10.04,-0.19,0.01,-0.02,3.01,4.48,13.76,-0.23,0.01,-0.04,2.90,9.22,7.87,3938.4304,10552.3740,0.31
661862186,-0.23,-0.09,0.08,-0.06,2.29,10.67,-0.24,-0.02,0.05,0.58,3.46,6.31,-0.29,-0.03,0.08,0.09,6.57,12.54,-0.29,0.05,0.08,1.59,7.06,7.30,-0.23,0.04,0.09,2.10,10.06,12.36,3938.4304,10552.3740,0.31
661867169,-0.12,-0.10,-0.01,0.37,0.84,9.46,-0.15,0.01,0.14,0.17,1.24,7.59,-0.15,-0.03,0.05,0.04,-0.19,12.54,-0.19,-0.03,0.25,0.38,-2.50,9.34,-0.15,-0.03,0.15,2.33,-4.04,8.23,3938.4304,10552.3740,0.31
661872222,-0.10,-0.04,0.09,1.12,3.21,13.21,-0.21,-0.07,0.06,1.61,4.14,7.74,-0.15,-0.12,0.00,0.83,4.54,10.20,-0.08,-0.06,0.06,2.64,6.14,11.80,-0.05,-0.03,0.10,4.44,-1.66,6.25,3938.4304,10552.3740,0.31
661877277,-0.01,0.05,0.11,0.84,-7.53,10.76,0.02,-0.04,0.17,1.76,-3.36,9.93,0.03,-0.05,0.10,1.53,1.60,6.73,0.07,-0.07,0.10,1.50,8.69,8.21,0.08,-0.19,0.12,4.19,12.56,5.22,3938.4304,10552.3740,0.31
661883557,-0.15,-0.01,0.29,2.46,-7.00,11.38,-0.14,-0.04,0.20,2.38,-3.87,10.92,-0.12,-0.10,0.18,1.82,-0.44,11.11,-0.13,-0.05,0.18,3.92,1.93,6.28,-0.09,0.13,0.20,2.24,2.58,-0.33,3938.4304,10552.3740,0.31
661888475,0.04,-0.01,0.05,2.31,-5.97,3.75,0.01,-0.04,0.18,1.13,-8.75,0.84,-0.04,0.01,0.12,0.14,-8.56,16.68,-0.08,-0.08,0.21,1.46,-8.35,22.34,-0.13,-0.04,0.19,4.96,-12.00,6.82,3938.4304,10552.3740,0.31
661893349,0.03,0.05,0.05,2.16,-3.60,10.45,0.07,-0.00,0.12,2.26,-3.09,12.08,0.10,0.02,0.26,2.31,-3.53,10.05,0.18,-0.04,0.22,3.06,-5.38,2.99,0.44,-0.07,0.05,3.69,-5.90,11.59,3938.4304,10552.3740,0.31
661898257,0.08,-0.04,0.05,2.19,-3.16,13.15,0.06,-0.00,0.14,2.60,-1.95,13.37,0.01,0.03,0.06,2.41,-2.33,15.77,-0.03,-0.02,0.17,2.87,-3.33,8.90,-0.06,-0.05,0.16,3.97,-5.12,7.35,3938.4304,10552.3740,0.31
661903184,-0.05,0.00,0.12,3.37,-4.50,6.66,-0.07,-0.02,0.10,2.89,-7.25,7.35,-0.12,-0.03,0.18,3.51,-9.34,11.61,-0.16,0.01,0.23,3.10,-12.67,12.39,-0.16,0.13,0.14,6.61,-15.58,8.68,3938.4304,10552.3740,0.31
661908214,0.03,0.00,0.02,3.83,-8.03,7.96,0.05,0.01,0.05,3.88,-8.74,5.68,0.08,0.02,0.09,4.06,-9.07,5.84,0.13,-0.00,0.00,3.61,-9.08,7.47,0.19,-0.07,0.03,6.54,-8.87,11.87,3938.4304,10552.3740,0.31
661913234,0.02,-0.03,0.02,4.28,-3.02,10.88,0.05,-0.00,0.01,4.55,-4.33,11.80,0.08,0.04,0.00,4.46,-6.53,13.11,0.09,0.00,-0.01,4.89,-9.34,13.14,0.11,-0.09,-0.01,7.48,-11.17,8.86,3938.4304,10552.3740,0.31
661918273,0.03,-0.00,-0.00,3.40,0.31,10.04,0.02,-0.01,-0.00,3.63,0.89,9.62,0.01,-0.00,-0.01,3.49,1.10,9.06,-0.01,0.03,0.02,3.76,1.31,7.50,-0.06,0.03,0.01,4.71,1.84,6.47,3938.4304,10552.3740,0.31
661923341,0.07,0.00,-0.01,1.39,-0.08,9.78,0.07,0.00,0.00,1.60,-0.03,9.07,0.08,0.01,-0.00,1.40,-0.31,8.10,0.10,0.02,-0.00,1.63,-0.41,7.19,0.13,0.03,-0.03,2.79,-0.37,7.40,3938.4304,10552.3740,0.31
661928316,0.12,0.01,-0.00,0.48,0.09,9.97,0.13,0.01,-0.00,0.71,0.28,10.05,0.13,0.02,0.00,0.57,-0.05,10.13,0.15,0.01,-0.01,0.89,-0.19,10.05,0.17,0.04,-0.03,2.52,-0.14,8.97,3938.4304,10552.3740,0.31
661932970,0.10,0.01,0.00,0.39,0.10,9.87,0.10,0.00,0.00,0.59,0.35,10.16,0.10,0.01,0.00,0.40,0.16,10.52,0.10,0.03,-0.00,0.75,0.02,10.90,0.10,0.05,-0.02,2.76,0.01,10.40,3938.4304,10552.3740,0.31
661937662,0.09,0.01,0.00,0.47,-0.01,9.66,0.09,0.00,-0.00,0.70,0.29,9.61,0.09,0.01,0.00,0.53,0.03,9.54,0.09,0.02,-0.00,0.76,-0.10,9.97,0.08,0.02,-0.02,2.70,-0.23,10.66,3938.4304,10552.3740,0.31
661943551,0.11,0.01,0.00,0.45,0.00,9.77,0.11,0.01,0.00,0.67,0.26,9.66,0.11,0.01,0.00,0.52,0.04,9.76,0.11,-0.00,-0.01,0.80,-0.06,10.24,0.11,-0.03,-0.02,2.73,-0.09,10.28,3938.4304,10552.3740,0.31
661948306,0.11,0.00,0.01,0.47,0.17,10.03,0.10,0.00,0.00,0.68,0.36,9.97,0.09,0.01,0.00,0.52,0.15,10.17,0.08,-0.01,0.00,0.83,0.05,10.22,0.08,-0.02,-0.02,2.64,0.09,9.48,3938.4304,10552.3740,0.31
661953023,0.10,0.00,0.00,0.52,0.11,9.85,0.09,0.00,0.00,0.70,0.31,9.87,0.08,0.01,0.00,0.58,0.10,9.67,0.08,0.00,-0.00,0.89,-0.10,9.47,0.08,-0.00,-0.02,2.53,-0.19,8.97,3938.4304,10552.3740,0.31
661957757,0.11,0.00,-0.00,0.46,0.14,10.06,0.10,0.01,0.00,0.73,0.37,9.88,0.10,0.01,0.00,0.60,0.06,9.62,0.11,0.01,-0.00,0.85,-0.12,9.45,0.11,0.01,-0.02,2.56,-0.23,8.96,3938.4304,10552.3740,0.31
661962784,0.10,0.00,0.00,0.49,0.10,9.63,0.10,0.01,0.00,0.70,0.40,9.87,0.10,0.01,0.00,0.55,0.18,9.99,0.10,0.02,-0.00,0.89,0.04,9.99,0.10,0.03,-0.02,2.62,-0.03,9.29,3938.4304,10552.3740,0.31
661967712,0.09,0.00,0.00,0.48,0.11,9.89,0.09,0.01,-0.00,0.74,0.37,10.03,0.09,0.02,0.00,0.59,0.06,9.99,0.10,0.02,-0.00,0.87,-0.10,10.04,0.11,0.03,-0.02,2.68,-0.15,9.88,3938.4304,10552.3740,0.31
661972667,0.08,0.00,0.00,0.42,0.19,10.08,0.08,0.00,0.00,0.62,0.45,10.05,0.08,0.01,0.00,0.49,0.20,10.18,0.08,0.02,0.00,0.77,0.06,10.36,0.08,0.02,-0.02,2.71,-0.01,10.24,3938.4304,10552.3740,0.31
661977560,0.05,0.00,0.00,0.37,0.17,9.98,0.05,0.00,-0.00,0.61,0.40,9.92,0.05,0.01,-0.00,0.43,0.17,10.07,0.05,0.01,-0.00,0.70,0.04,10.38,0.05,0.01,-0.01,2.64,0.09,10.40,3938.4304,10552.3740,0.31
661982506,0.03,0.00,0.00,0.34,0.16,9.96,0.03,-0.00,0.00,0.55,0.35,9.93,0.02,0.00,0.00,0.38,0.08,10.00,0.02,0.00,-0.00,0.67,-0.04,10.21,0.02,-0.01,-0.00,2.57,-0.07,10.32,3938.4304,10552.3740,0.31
661987554,0.02,-0.00,0.00,0.29,0.14,10.00,0.01,-0.00,0.00,0.54,0.40,9.99,0.01,-0.00,-0.00,0.36,0.13,9.96,0.00,-0.01,-0.00,0.67,-0.08,10.10,0.00,-0.02,0.00,2.45,-0.11,9.89,3938.4304,10552.3740,0.31
661992592,0.00,-0.00,0.00,0.33,0.16,9.92,-0.00,-0.00,0.00,0.51,0.35,9.96,-0.00,-0.00,-0.00,0.36,0.09,10.00,-0.01,-0.01,-0.00,0.70,-0.02,9.97,-0.01,-0.01,0.00,2.45,-0.09,9.40,3938.4304,10552.3740,0.31
661997621,-0.01,-0.00,0.00,0.31,0.09,9.81,-0.01,-0.00,0.00,0.49,0.34,9.81,-0.01,-0.00,-0.00,0.35,0.11,9.82,-0.01,0.00,0.00,0.65,-0.02,9.75,-0.01,-0.00,0.00,2.38,-0.11,9.19,3938.4304,10552.3740,0.31
662002617,-0.01,0.00,0.00,0.30,0.14,9.87,-0.01,-0.00,0.00,0.55,0.32,9.84,-0.01,0.00,-0.00,0.35,0.06,9.76,-0.00,0.01,0.00,0.67,-0.09,9.79,0.00,0.01,-0.00,2.42,-0.12,9.35,3938.4304,10552.3740,0.31
662007513,-0.01,-0.00,-0.00,0.35,0.12,9.88,-0.01,-0.00,0.00,0.56,0.37,9.85,-0.01,0.00,0.00,0.39,0.14,9.89,-0.00,0.01,-0.00,0.71,-0.05,9.97,-0.00,0.01,-0.00,2.48,-0.08,9.63,3938.4304,10552.3740,0.31
662012467,-0.02,-0.00,-0.00,0.34,0.09,9.85,-0.02,-0.00,0.00,0.59,0.35,9.81,-0.01,0.00,-0.00,0.42,0.04,9.82,-0.01,0.01,-0.00,0.71,-0.03,9.95,-0.01,0.00,0.00,2.52,-0.12,9.94,3938.4304,10552.3740,0.31
662017365,-0.02,0.00,0.00,0.39,0.11,9.83,-0.02,-0.00,0.00,0.62,0.35,9.83,-0.02,-0.00,0.00,0.43,0.10,9.85,-0.01,-0.00,0.00,0.76,-0.04,9.95,-0.01,-0.01,0.00,2.57,-0.11,9.97,3938.4304,10552.3740,0.31
662022334,-0.02,0.00,0.00,0.37,0.11,9.85,-0.02,-0.00,0.00,0.59,0.36,9.84,-0.02,-0.00,-0.00,0.42,0.14,9.88,-0.02,-0.00,-0.00,0.72,-0.06,9.98,-0.02,-0.01,0.00,2.52,-0.06,9.75,3938.4304,10552.3740,0.31
662027401,-0.01,-0.00,0.00,0.36,0.06,9.83,-0.02,-0.00,0.00,0.61,0.30,9.74,-0.02,-0.00,0.00,0.47,0.05,9.72,-0.02,-0.01,-0.00,0.74,-0.09,9.78,-0.02,-0.01,0.00,2.49,-0.14,9.40,3938.4304,10552.3740,0.31
662032164,-0.01,0.00,0.00,0.40,0.05,9.76,-0.01,-0.00,-0.00,0.57,0.29,9.68,-0.01,-0.00,0.00,0.42,0.06,9.78,-0.01,-0.00,-0.00,0.76,-0.04,9.69,-0.01,-0.01,0.00,2.44,-0.13,9.14,3938.4304,10552.3740,0.31
662038037,0.00,-0.00,0.00,0.38,0.10,9.75,-0.00,-0.00,0.00,0.62,0.32,9.76,-0.00,0.00,-0.00,0.43,0.07,9.75,0.00,0.00,0.00,0.75,-0.08,9.71,0.01,0.00,-0.00,2.48,-0.11,9.24,3938.4304,10552.3740,0.31
662042727,0.01,-0.00,0.00,0.39,0.07,9.82,0.01,-0.00,-0.00,0.60,0.29,9.74,0.01,0.00,0.00,0.46,0.04,9.70,0.01,0.01,-0.00,0.71,-0.06,9.75,0.01,0.01,-0.00,2.51,-0.14,9.43,3938.4304,10552.3740,0.31
662048499,0.02,0.00,0.00,0.37,0.11,9.73,0.02,-0.00,0.00,0.58,0.35,9.78,0.01,0.00,-0.00,0.44,0.10,9.87,0.02,0.01,0.00,0.68,-0.06,9.90,0.02,0.01,-0.00,2.50,-0.17,9.69,3938.4304,10552.3740,0.31
662053140,0.02,0.00,0.00,0.39,0.05,9.76,0.02,-0.00,0.00,0.57,0.33,9.81,0.02,0.00,-0.00,0.42,0.07,9.84,0.02,0.00,-0.00,0.72,-0.02,9.91,0.02,-0.00,-0.00,2.48,-0.10,9.78,3938.4304,10552.3740,0.31
662057815,0.03,0.00,0.00,0.38,0.14,9.82,0.02,-0.00,0.00,0.57,0.36,9.78,0.02,0.00,0.00,0.43,0.12,9.77,0.02,0.00,0.00,0.73,-0.01,9.85,0.02,-0.01,-0.00,2.51,-0.12,9.60,3938.4304,10552.3740,0.31
662062491,0.04,-0.00,0.01,0.37,0.07,9.76,0.03,-0.00,0.00,0.58,0.34,9.74,0.03,0.00,0.00,0.43,0.08,9.72,0.03,0.00,-0.00,0.73,-0.08,9.68,0.03,-0.01,-0.00,2.47,-0.13,9.35,3938.4304,10552.3740,0.31
662067530,0.04,0.00,0.00,0.34,0.11,9.79,0.04,0.00,0.00,0.56,0.35,9.74,0.03,0.01,0.00,0.42,0.09,9.74,0.04,0.00,0.00,0.71,-0.09,9.67,0.04,0.00,-0.01,2.44,-0.14,9.16,3938.4304,10552.3740,0.31
662072571,0.05,0.00,0.00,0.34,0.07,9.77,0.04,0.00,0.00,0.55,0.30,9.78,0.05,0.01,-0.00,0.38,0.08,9.74,0.05,0.01,-0.00,0.75,-0.08,9.74,0.05,0.01,-0.01,2.44,-0.12,9.31,3938.4304,10552.3740,0.31
662077647,0.05,0.00,0.00,0.31,0.13,9.84,0.05,0.00,0.00,0.57,0.42,10.05,0.05,0.01,-0.00,0.39,0.13,9.63,0.05,0.01,-0.00,0.72,-0.03,9.92,0.06,0.01,-0.01,2.39,-0.07,9.53,3938.4304,10552.3740,0.31
662082571,0.04,0.00,0.00,0.40,0.14,9.83,0.04,-0.00,0.00,0.61,0.35,9.80,0.05,0.01,0.00,0.44,0.12,9.79,0.05,0.01,-0.00,0.75,0.01,10.01,0.05,0.02,-0.01,2.58,-0.05,10.02,3938.4304,10552.3740,0.31
662087440,0.03,-0.00,0.00,0.47,0.18,9.99,0.03,-0.00,0.00,0.69,0.35,9.81,0.04,0.01,-0.00,0.53,0.13,9.96,0.04,0.01,-0.00,0.82,0.01,10.26,0.04,0.01,-0.01,2.71,-0.05,10.01,3938.4304,10552.3740,0.31
662092378,0.02,0.00,0.00,0.40,0.25,10.11,0.02,-0.00,0.00,0.67,0.43,10.01,0.02,0.00,0.00,0.49,0.18,9.99,0.02,0.00,0.00,0.78,0.08,10.34,0.01,-0.00,-0.01,2.62,0.00,10.07,3938.4304,10552.3740,0.31
662097327,0.01,-0.00,0.00,0.45,0.20,9.94,0.00,-0.00,-0.00,0.68,0.43,9.95,0.00,0.00,0.00,0.52,0.16,9.99,-0.00,0.00,-0.00,0.79,0.03,9.94,-0.00,-0.01,0.00,2.59,-0.03,9.91,3938.4304,10552.3740,0.31
662102296,-0.00,0.00,0.00,0.44,0.11,9.87,-0.00,-0.01,-0.00,0.64,0.38,9.88,-0.00,-0.00,-0.00,0.46,0.15,9.91,-0.01,-0.01,0.00,0.83,0.00,9.85,-0.01,-0.01,0.00,2.57,-0.05,9.60,3938.4304,10552.3740,0.31
662107328,-0.01,-0.00,0.00,0.49,0.15,9.93,-0.01,-0.00,0.00,0.73,0.35,9.86,-0.01,-0.00,-0.00,0.52,0.11,9.82,-0.01,-0.00,0.00,0.82,-0.02,9.75,-0.01,-0.01,0.00,2.55,-0.11,9.31,3938.4304,10552.3740,0.31
662112353,-0.01,-0.00,-0.00,0.50,0.15,9.84,-0.01,-0.00,-0.00,0.69,0.35,9.78,-0.01,0.00,0.00,0.51,0.12,9.79,-0.01,0.00,0.00,0.83,-0.07,9.73,-0.00,-0.00,0.00,2.57,-0.12,9.31,3938.4304,10552.3740,0.31
662117432,-0.01,0.00,0.00,0.46,0.12,9.82,-0.01,-0.00,-0.00,0.66,0.31,9.78,-0.00,0.00,-0.00,0.51,0.07,9.80,-0.00,0.00,0.00,0.79,-0.02,9.81,0.00,0.01,-0.00,2.56,-0.15,9.39,3938.4304,10552.3740,0.31
662122369,-0.00,-0.00,-0.00,0.51,0.15,9.71,-0.00,-0.00,0.00,0.71,0.33,9.64,-0.00,0.00,-0.00,0.58,0.17,9.95,0.00,0.01,-0.00,0.89,0.00,9.83,0.01,0.00,-0.00,2.68,-0.11,9.55,3938.4304,10552.3740,0.31
662127250,0.00,-0.00,0.00,0.45,0.11,9.85,0.00,-0.00,0.00,0.67,0.35,9.68,0.00,0.00,-0.00,0.53,0.10,9.77,0.00,0.01,-0.00,0.80,-0.03,9.93,0.01,0.00,-0.00,2.61,-0.07,9.70,3938.4304,10552.3740,0.31
662132199,0.01,0.00,0.00,0.30,0.06,9.64,0.01,-0.00,0.00,0.50,0.35,9.93,0.01,0.00,0.00,0.42,0.16,9.80,0.00,-0.00,0.00,0.70,0.08,9.91,0.00,-0.00,0.00,2.35,-0.13,9.89,3938.4304,10552.3740,0.31
662136939,0.01,-0.00,0.00,0.41,0.13,9.85,0.01,-0.00,-0.00,0.62,0.39,9.88,0.01,0.00,0.00,0.52,0.14,9.95,0.01,0.00,0.00,0.76,0.02,9.77,0.01,-0.01,-0.00,2.58,-0.01,9.56,3938.4304,10552.3740,0.31
662141702,0.01,0.00,0.00,0.37,0.22,9.91,0.01,-0.00,-0.00,0.62,0.35,9.86,0.01,0.00,-0.00,0.50,0.18,9.90,0.01,0.00,-0.00,0.78,0.00,9.78,0.01,-0.01,-0.00,2.52,-0.10,9.40,3938.4304,10552.3740,0.31
662146434,0.02,0.00,0.01,0.44,0.21,10.13,0.01,-0.00,0.00,0.70,0.42,9.56,0.01,0.00,0.00,0.46,0.14,9.48,0.02,-0.00,-0.00,0.80,0.15,9.36,0.01,0.01,-0.00,2.63,-0.18,8.72,3938.4304,10552.3740,0.31
662156395,0.00,-0.00,0.00,0.41,0.19,9.98,0.00,-0.00,0.00,0.65,0.40,10.05,0.00,0.00,-0.00,0.49,0.13,10.02,0.00,0.01,-0.00,0.77,0.03,10.06,0.01,0.01,-0.00,2.55,-0.05,9.72,3938.4304,10552.3740,0.31
662161086,-0.00,-0.00,-0.00,0.42,0.15,9.85,-0.00,-0.00,0.00,0.65,0.37,9.96,-0.00,0.00,-0.00,0.45,0.14,9.88,0.00,0.01,0.00,0.76,0.01,9.93,-0.00,0.00,-0.00,2.61,-0.09,9.92,3938.4304,10552.3740,0.31
662165740,-0.00,-0.00,0.00,0.43,0.14,9.86,-0.01,-0.00,0.00,0.62,0.38,9.80,-0.01,-0.00,-0.00,0.47,0.10,9.82,-0.00,-0.00,0.00,0.78,-0.03,9.94,-0.01,-0.01,-0.00,2.56,-0.04,9.84,3938.4304,10552.3740,0.31
662170346,-0.01,-0.00,0.00,0.41,0.16,9.87,-0.01,-0.00,0.00,0.61,0.40,9.82,-0.01,-0.00,0.00,0.49,0.13,9.88,-0.01,-0.00,-0.00,0.80,-0.03,9.96,-0.01,-0.01,0.00,2.55,-0.07,9.64,3938.4304,10552.3740,0.31
662175351,-0.01,-0.00,0.00,0.41,0.14,9.85,-0.01,-0.01,0.00,0.62,0.36,9.80,-0.01,-0.00,-0.00,0.47,0.11,9.84,-0.02,-0.00,0.00,0.80,-0.08,9.82,-0.01,-0.01,0.00,2.55,-0.13,9.51,3938.4304,10552.3740,0.31
662180424,-0.01,-0.00,0.00,0.45,0.16,9.84,-0.01,-0.00,0.00,0.64,0.33,9.78,-0.01,0.00,-0.00,0.47,0.10,9.78,-0.01,-0.00,-0.00,0.77,-0.02,9.80,-0.00,-0.01,0.00,2.53,-0.13,9.34,3938.4304,10552.3740,0.31
662185458,-0.01,-0.00,0.00,0.41,0.11,9.85,-0.01,-0.00,0.00,0.62,0.38,9.78,-0.00,0.00,0.00,0.48,0.10,9.81,-0.00,0.00,0.00,0.76,-0.06,9.82,-0.00,0.00,0.00,2.51,-0.07,9.35,3938.4304,10552.3740,0.31
662191834,0.00,-0.00,-0.00,0.42,0.12,9.83,-0.00,-0.00,0.00,0.66,0.35,9.75,0.00,0.00,-0.00,0.47,0.11,9.77,0.00,0.01,-0.00,0.81,-0.06,9.78,0.01,0.01,-0.00,2.55,-0.06,9.56,3938.4304,10552.3740,0.31
662196776,0.00,0.00,-0.00,0.45,0.11,9.83,0.00,-0.00,0.00,0.66,0.37,9.75,0.00,0.00,0.00,0.51,0.10,9.85,0.01,0.00,0.00,0.81,-0.04,9.91,0.01,0.00,-0.00,2.54,-0.04,9.70,3938.4304,10552.3740,0.31
662201682,0.00,-0.00,0.00,0.46,0.13,9.86,-0.00,-0.00,0.00,0.65,0.37,9.84,0.00,0.00,-0.00,0.50,0.11,9.90,0.00,0.00,0.00,0.81,0.01,9.97,0.00,-0.00,-0.00,2.56,-0.09,9.72,3938.4304,10552.3740,0.31
662206599,0.00,-0.00,0.00,0.43,0.12,9.84,-0.00,-0.00,0.00,0.67,0.41,9.81,-0.00,0.00,-0.00,0.50,0.10,9.86,-0.00,-0.00,-0.00,0.80,0.00,9.92,-0.00,-0.01,-0.00,2.62,-0.07,9.64,3938.4304,10552.3740,0.31
662211530,-0.00,-0.00,-0.00,0.45,0.14,9.88,-0.00,-0.00,0.00,0.63,0.37,9.82,-0.01,0.00,0.00,0.51,0.14,9.83,-0.01,-0.00,0.00,0.83,-0.02,9.89,-0.00,-0.01,0.00,2.58,-0.10,9.51,3938.4304,10552.3740,0.31
662216442,-0.00,-0.00,0.00,0.44,0.15,9.81,-0.01,-0.00,-0.00,0.65,0.36,9.75,-0.00,0.00,-0.00,0.46,0.13,9.85,-0.01,0.00,-0.00,0.78,-0.02,9.89,-0.00,-0.00,0.00,2.56,-0.07,9.44,3938.4304,10552.3740,0.31
662221444,-0.01,-0.00,0.00,0.47,0.11,9.87,-0.01,-0.00,0.00,0.65,0.37,9.82,-0.01,-0.00,-0.00,0.51,0.10,9.80,-0.00,0.00,0.00,0.81,-0.05,9.90,-0.00,-0.00,0.00,2.56,-0.14,9.51,3938.4304,10552.3740,0.31
662226482,-0.01,-0.00,-0.00,0.44,0.13,9.85,-0.01,-0.01,0.00,0.64,0.36,9.86,-0.01,0.00,-0.00,0.49,0.12,9.87,-0.01,0.00,-0.00,0.78,-0.02,9.96,-0.00,0.00,0.00,2.56,-0.11,9.59,3938.4304,10552.3740,0.31
662231510,-0.02,0.00,-0.00,0.44,0.15,9.88,-0.02,-0.00,0.00,0.63,0.36,9.83,-0.01,0.00,-0.00,0.47,0.12,9.78,-0.01,0.00,0.00,0.75,-0.02,9.96,-0.01,-0.00,0.00,2.56,-0.07,9.74,3938.4304,10552.3740,0.31
662239734,-0.02,0.00,-0.00,0.42,0.15,9.91,-0.02,-0.00,-0.00,0.63,0.34,9.84,-0.02,-0.00,-0.00,0.45,0.08,9.88,-0.02,-0.00,-0.00,0.77,-0.05,9.91,-0.02,-0.01,0.00,2.54,-0.07,9.62,3938.4304,10552.3740,0.31
662244670,-0.02,-0.00,0.01,0.40,0.17,9.87,-0.02,-0.00,0.00,0.62,0.37,9.85,-0.02,-0.00,-0.00,0.45,0.12,9.85,-0.02,-0.00,0.00,0.75,0.01,9.91,-0.02,-0.01,0.00,2.55,-0.09,9.58,3938.4304,10552.3740,0.31
662249374,-0.03,-0.00,0.00,0.41,0.12,9.85,-0.02,-0.01,0.00,0.61,0.38,9.85,-0.02,-0.00,-0.00,0.43,0.11,9.83,-0.02,-0.00,-0.00,0.74,-0.03,9.90,-0.02,-0.01,0.00,2.54,-0.08,9.53,3938.4304,10552.3740,0.31
662254068,-0.03,0.00,-0.00,0.40,0.11,9.84,-0.03,-0.00,0.00,0.62,0.35,9.85,-0.03,-0.00,-0.00,0.48,0.14,9.82,-0.02,-0.00,-0.00,0.78,-0.05,9.87,-0.02,-0.00,0.00,2.56,-0.11,9.51,3938.4304,10552.3740,0.31
662258762,-0.03,0.00,-0.00,0.40,0.17,9.85,-0.03,-0.00,0.00,0.64,0.35,9.83,-0.02,-0.00,-0.00,0.49,0.09,9.84,-0.03,0.00,0.00,0.80,-0.05,9.88,-0.02,-0.00,0.00,2.56,-0.06,9.48,3938.4304,10552.3740,0.31
662264660,-0.03,0.00,-0.00,0.46,0.13,9.84,-0.03,-0.00,0.00,0.64,0.34,9.82,-0.03,-0.00,-0.00,0.53,0.13,9.85,-0.02,0.00,-0.00,0.79,0.00,9.91,-0.02,-0.00,0.00,2.57,-0.07,9.59,3938.4304,10552.3740,0.31
662269036,-0.03,-0.00,-0.00,0.41,0.12,9.84,-0.03,-0.00,0.00,0.63,0.39,9.84,-0.03,-0.00,-0.00,0.48,0.13,9.83,-0.03,0.00,0.00,0.77,-0.08,9.89,-0.02,-0.00,0.00,2.56,-0.08,9.65,3938.4304,10552.3740,0.31
662273934,-0.03,-0.00,-0.00,0.39,0.11,9.85,-0.03,-0.00,-0.00,0.60,0.31,9.83,-0.03,-0.00,-0.00,0.45,0.14,9.87,-0.03,-0.00,0.00,0.76,-0.04,9.86,-0.03,-0.00,0.00,2.55,-0.05,9.67,3938.4304,10552.3740,0.31
662278894,-0.03,-0.00,-0.00,0.39,0.09,9.74,-0.03,-0.00,0.00,0.63,0.29,9.80,-0.03,-0.00,-0.00,0.46,0.07,9.82,-0.03,-0.00,0.00,0.80,-0.05,9.88,-0.03,-0.01,0.00,2.51,-0.09,9.55,3938.4304,10552.3740,0.31
662283785,-0.03,0.00,-0.00,0.40,0.10,9.78,-0.03,-0.00,-0.00,0.63,0.34,9.76,-0.03,-0.00,-0.00,0.46,0.10,9.76,-0.03,-0.00,0.00,0.77,-0.06,9.79,-0.02,-0.01,0.00,2.51,-0.13,9.44,3938.4304,10552.3740,0.31
662288670,-0.02,-0.00,0.00,0.42,0.12,9.76,-0.02,-0.00,-0.00,0.62,0.32,9.74,-0.02,-0.00,-0.00,0.43,0.07,9.77,-0.02,-0.00,-0.00,0.77,-0.05,9.80,-0.02,-0.01,0.00,2.51,-0.16,9.36,3938.4304,10552.3740,0.31
662293612,-0.01,-0.00,-0.00,0.47,0.07,9.71,-0.01,-0.00,0.00,0.62,0.33,9.68,-0.01,-0.00,-0.00,0.47,0.07,9.72,-0.01,0.00,-0.00,0.76,-0.06,9.80,-0.01,-0.00,0.00,2.52,-0.14,9.34,3938.4304,10552.3740,0.31
662298546,0.00,0.00,0.00,0.41,0.07,9.78,-0.00,-0.00,0.00,0.65,0.34,9.70,0.00,0.00,-0.00,0.44,0.05,9.71,0.00,0.00,-0.00,0.78,-0.09,9.74,0.01,-0.00,-0.00,2.49,-0.10,9.31,3938.4304,10552.3740,0.31
662303589,0.01,-0.00,0.00,0.40,0.07,9.78,0.01,-0.00,0.00,0.62,0.33,9.77,0.01,0.00,-0.00,0.49,0.08,9.80,0.01,0.00,0.00,0.75,-0.06,9.79,0.01,0.00,-0.00,2.54,-0.06,9.49,3938.4304,10552.3740,0.31
662308585,0.01,-0.00,0.00,0.41,0.12,9.81,0.01,-0.00,0.00,0.65,0.34,9.73,0.01,0.00,-0.00,0.46,0.10,9.77,0.01,0.01,-0.00,0.78,-0.06,9.84,0.01,0.00,-0.00,2.55,-0.12,9.54,3938.4304,10552.3740,0.31
662313601,0.02,-0.00,-0.00,0.38,0.10,9.85,0.01,-0.00,-0.00,0.60,0.29,9.79,0.01,0.00,-0.00,0.45,0.08,9.84,0.01,0.00,0.00,0.73,-0.02,9.85,0.02,0.00,-0.00,2.53,-0.10,9.61,3938.4304,10552.3740,0.31
662318575,0.02,0.00,-0.00,0.42,0.12,9.86,0.01,-0.00,0.00,0.62,0.37,9.86,0.01,0.00,-0.00,0.47,0.10,9.88,0.01,0.00,-0.00,0.77,-0.02,9.94,0.01,0.00,-0.00,2.55,-0.05,9.63,3938.4304,10552.3740,0.31
662323416,0.01,-0.00,0.00,0.40,0.15,9.88,0.01,-0.00,0.00,0.63,0.36,9.84,0.01,0.00,0.00,0.50,0.10,9.84,0.01,0.00,0.00,0.78,-0.06,9.88,0.01,-0.00,0.00,2.52,-0.05,9.53,3938.4304,10552.3740,0.31
662328265,0.01,-0.00,0.00,0.42,0.16,9.87,0.01,-0.00,0.00,0.65,0.33,9.83,0.01,0.00,0.00,0.49,0.14,9.82,0.01,0.00,0.00,0.80,-0.03,9.88,0.01,-0.00,-0.00,2.56,-0.09,9.54,3938.4304,10552.3740,0.31
662333198,0.00,0.00,0.00,0.41,0.14,9.92,0.00,-0.00,0.00,0.66,0.37,9.84,0.00,0.00,-0.00,0.50,0.11,9.90,0.00,0.00,0.00,0.80,-0.03,9.94,0.01,0.00,-0.00,2.58,-0.09,9.52,3938.4304,10552.3740,0.31
662338149,-0.00,-0.00,-0.00,0.40,0.16,9.91,-0.00,-0.00,0.00,0.64,0.34,9.84,-0.00,0.00,-0.00,0.48,0.13,9.89,-0.00,0.00,-0.00,0.80,-0.07,9.90,0.00,0.00,-0.00,2.54,-0.11,9.58,3938.4304,10552.3740,0.31
662343208,-0.01,0.00,-0.00,0.41,0.08,9.88,-0.01,-0.00,0.00,0.62,0.35,9.82,-0.00,0.00,-0.00,0.47,0.12,9.84,-0.01,0.00,-0.00,0.77,-0.01,9.96,-0.00,-0.00,0.00,2.57,-0.06,9.65,3938.4304,10552.3740,0.31
662349389,-0.02,0.00,0.00,0.44,0.15,9.87,-0.01,-0.00,-0.00,0.63,0.35,9.84,-0.01,-0.00,0.00,0.45,0.09,9.90,-0.01,0.00,-0.00,0.79,-0.02,9.92,-0.01,-0.00,0.00,2.55,-0.12,9.62,3938.4304,10552.3740,0.31
662354102,-0.02,-0.00,-0.00,0.43,0.16,9.86,-0.02,-0.00,0.00,0.62,0.37,9.84,-0.02,-0.00,-0.00,0.48,0.15,9.87,-0.01,-0.00,0.00,0.77,-0.04,9.91,-0.01,-0.00,0.00,2.54,-0.08,9.61,3938.4304,10552.3740,0.31
662358851,-0.03,0.00,0.00,0.44,0.16,9.90,-0.03,-0.00,0.00,0.61,0.38,9.89,-0.02,-0.00,-0.00,0.46,0.12,9.89,-0.02,-0.00,-0.00,0.80,-0.04,9.91,-0.02,-0.01,0.00,2.57,-0.07,9.61,3938.4304,10552.3740,0.31
662364651,-0.03,-0.00,0.00,0.42,0.16,9.88,-0.03,-0.00,-0.00,0.61,0.40,9.88,-0.03,-0.00,0.00,0.50,0.14,9.92,-0.03,0.00,0.00,0.76,-0.03,9.91,-0.03,-0.00,0.01,2.54,-0.09,9.56,3938.4304,10552.3740,0.31
662369316,-0.04,0.00,-0.00,0.42,0.09,9.84,-0.04,-0.01,0.00,0.60,0.35,9.81,-0.03,-0.00,-0.00,0.43,0.10,9.85,-0.03,0.00,-0.00,0.79,-0.08,9.87,-0.03,-0.00,0.01,2.50,-0.06,9.64,3938.4304,10552.3740,0.31
662373943,-0.04,-0.00,-0.00,0.39,0.11,9.81,-0.04,-0.00,0.00,0.61,0.31,9.90,-0.04,-0.00,-0.00,0.47,0.06,9.80,-0.04,-0.00,0.00,0.74,-0.01,9.96,-0.03,-0.01,0.01,2.51,-0.08,9.67,3938.4304,10552.3740,0.31
662378629,-0.03,-0.00,0.00,0.42,0.08,9.81,-0.04,-0.00,-0.00,0.61,0.36,9.88,-0.03,-0.00,-0.00,0.46,0.10,9.92,-0.04,-0.00,-0.00,0.75,-0.07,9.80,-0.04,-0.01,0.01,2.51,-0.17,9.47,3938.4304,10552.3740,0.31
662383690,-0.03,-0.00,0.00,0.45,0.10,9.81,-0.03,-0.00,0.00,0.64,0.36,9.83,-0.03,-0.00,-0.00,0.49,0.14,9.89,-0.03,-0.00,0.00,0.83,0.00,9.86,-0.03,-0.01,0.01,2.52,-0.04,9.29,3938.4304,10552.3740,0.31
662388741,-0.02,-0.00,-0.00,0.47,0.23,10.02,-0.02,-0.00,0.00,0.62,0.41,9.89,-0.02,0.00,-0.00,0.48,0.10,9.96,-0.02,-0.01,0.00,0.84,-0.10,9.68,-0.03,-0.01,0.00,2.36,-0.27,8.31,3938.4304,10552.3740,0.31
662393754,-0.01,-0.00,-0.00,0.49,0.04,9.79,-0.01,-0.00,-0.00,0.65,0.35,9.97,-0.01,-0.00,-0.00,0.51,0.12,9.92,-0.01,0.00,-0.00,0.85,0.01,9.34,-0.01,-0.00,0.00,2.39,0.14,8.96,3938.4304,10552.3740,0.31
662398750,-0.02,-0.00,0.00,0.44,0.04,9.52,-0.03,-0.00,-0.00,0.61,0.35,9.70,-0.03,-0.00,-0.00,0.50,0.14,9.97,-0.02,0.01,0.00,0.78,0.03,9.78,0.00,0.01,0.00,2.52,0.06,9.48,3938.4304,10552.3740,0.31
662403625,-0.00,-0.00,0.00,0.46,0.20,10.15,-0.01,-0.00,0.00,0.70,0.43,10.04,-0.01,-0.00,-0.00,0.50,0.09,9.57,-0.01,0.00,-0.00,0.75,-0.10,9.67,-0.00,0.00,0.00,2.68,-0.31,10.22,3938.4304,10552.3740,0.31
662408520,-0.00,0.00,-0.00,0.38,0.12,9.86,0.00,0.00,0.00,0.62,0.38,9.85,0.01,0.00,-0.00,0.47,0.09,10.17,0.01,-0.00,-0.00,0.85,-0.10,10.23,0.00,-0.01,-0.00,2.55,-0.23,9.22,3938.4304,10552.3740,0.32
662413435,0.00,0.00,0.00,0.38,0.20,10.14,-0.00,-0.00,0.00,0.62,0.39,10.06,-0.00,0.00,-0.00,0.44,0.13,10.04,-0.01,-0.00,-0.00,0.79,0.00,9.77,-0.02,-0.01,0.00,2.41,0.04,8.96,3938.4304,10552.3740,0.32
662418405,0.00,-0.00,0.00,0.41,0.16,9.87,-0.00,-0.00,0.00,0.62,0.37,9.79,-0.00,-0.00,-0.00,0.44,0.05,9.48,-0.01,-0.00,0.00,0.78,-0.09,9.10,-0.01,0.00,0.00,2.27,-0.06,8.91,3938.4304,10552.3740,0.32
662423446,0.01,0.00,0.00,0.38,0.09,9.76,0.00,-0.00,0.00,0.61,0.25,9.69,0.00,0.00,0.00,0.45,0.03,9.61,0.01,-0.00,0.00,0.76,-0.08,9.56,0.02,0.00,-0.00,2.42,-0.02,9.20,3938.4304,10552.3740,0.32
662428418,0.01,-0.00,0.00,0.39,0.03,9.77,-0.00,-0.01,0.00,0.62,0.27,9.68,-0.01,-0.00,-0.00,0.46,0.06,9.71,-0.00,0.00,0.00,0.72,-0.01,10.39,0.01,0.01,-0.00,2.56,-0.07,9.95,3938.4304,10552.3740,0.32
662433485,0.01,0.00,0.00,0.37,-0.01,9.58,0.00,-0.00,0.00,0.58,0.27,9.63,0.01,-0.00,0.00,0.40,0.05,9.76,0.01,0.01,0.00,0.68,-0.14,10.31,0.02,0.00,-0.00,2.65,-0.35,10.22,3938.4304,10552.3740,0.32
662438420,0.00,-0.00,-0.00,0.39,-0.03,9.40,0.00,-0.00,-0.00,0.58,0.23,9.46,0.01,0.00,-0.00,0.39,0.09,9.87,0.01,0.01,-0.00,0.71,-0.01,10.57,0.00,-0.01,-0.00,2.76,-0.13,10.29,3938.4304,10552.3740,0.32
662443314,-0.00,0.00,0.00,0.39,0.09,9.58,-0.01,-0.00,0.00,0.59,0.26,9.38,-0.01,0.00,-0.00,0.42,0.02,9.48,-0.00,0.01,0.00,0.69,-0.03,10.17,-0.01,-0.00,0.00,2.62,-0.11,10.24,3938.4304,10552.3740,0.32
662448266,0.00,-0.00,-0.00,0.44,0.15,9.72,-0.00,-0.00,0.00,0.62,0.24,9.22,-0.00,0.00,0.00,0.41,-0.01,9.36,-0.00,0.00,-0.00,0.74,-0.19,9.96,-0.00,-0.01,-0.00,2.56,-0.31,9.78,3938.4304,10552.3740,0.32
662452982,-0.00,-0.00,0.00,0.41,0.15,10.13,-0.00,-0.00,0.00,0.65,0.32,9.94,-0.00,0.00,-0.00,0.51,0.02,9.51,-0.00,-0.00,-0.00,0.75,-0.15,9.83,0.01,-0.01,-0.00,2.56,-0.18,9.94,3938.4304,10552.3740,0.32
662457747,-0.01,0.00,0.00,0.41,0.14,9.91,-0.01,-0.00,-0.00,0.65,0.38,10.04,-0.01,0.00,-0.00,0.49,0.09,9.99,-0.01,-0.00,0.00,0.79,-0.11,9.94,-0.01,-0.00,0.00,2.55,-0.24,9.46,3938.4304,10552.3740,0.32
662462479,-0.00,0.00,-0.00,0.39,-0.04,9.43,-0.00,-0.00,0.00,0.57,0.24,9.58,-0.00,0.00,-0.00,0.42,0.08,9.97,-0.01,0.00,-0.00,0.79,0.02,9.88,-0.00,-0.00,-0.00,2.49,-0.07,9.31,3938.4304,10552.3740,0.32
662468359,-0.01,0.00,0.00,0.46,-0.11,9.56,-0.01,-0.00,0.00,0.64,0.22,9.73,-0.00,0.00,-0.00,0.48,0.02,10.10,0.00,-0.00,0.00,0.79,-0.06,10.09,0.00,-0.00,0.00,2.54,-0.16,9.31,3938.4304,10552.3740,0.32
662473066,0.00,-0.00,0.00,0.42,0.19,9.67,-0.00,-0.00,-0.00,0.65,0.34,9.70,-0.01,-0.00,-0.00,0.47,0.14,9.82,-0.01,0.01,0.00,0.79,-0.02,9.77,-0.00,0.00,0.00,2.58,-0.06,9.68,3938.4304,10552.3740,0.32
662477679,0.00,-0.00,0.00,0.42,0.05,9.86,0.00,-0.00,-0.00,0.67,0.36,9.94,0.00,0.00,-0.00,0.50,0.09,9.68,0.01,0.00,0.00,0.81,-0.08,9.78,0.01,-0.00,-0.00,2.54,-0.18,9.59,3938.4304,10552.3740,0.32
662482280,0.01,-0.00,0.00,0.39,0.18,9.66,0.01,-0.00,0.00,0.62,0.38,9.81,0.00,-0.00,0.00,0.47,0.14,9.87,0.00,0.00,-0.00,0.75,0.07,9.92,0.01,-0.00,-0.00,2.56,-0.01,9.56,3938.4304,10552.3740,0.32
662487233,0.01,-0.00,0.00,0.42,0.16,9.99,0.01,-0.00,0.00,0.68,0.35,9.84,0.00,0.00,-0.00,0.50,0.10,9.61,0.00,0.00,-0.00,0.76,-0.10,9.72,0.01,-0.00,-0.00,2.56,-0.21,9.65,3938.4304,10552.3740,0.32
662492220,0.01,0.00,0.00,0.46,-0.05,9.68,0.01,0.00,-0.00,0.62,0.24,9.82,0.01,0.01,-0.00,0.47,0.03,10.16,0.01,0.00,0.00,0.82,-0.10,10.00,0.01,-0.00,-0.00,2.52,-0.13,9.06,3938.4304,10552.3740,0.32
662497301,0.02,-0.00,0.00,0.42,0.19,10.18,0.01,-0.00,0.00,0.69,0.39,9.92,0.01,0.00,-0.00,0.53,0.14,9.51,0.01,0.01,0.00,0.78,0.03,9.72,0.01,-0.00,0.00,2.66,0.01,9.93,3938.4304,10552.3740,0.32
662503743,0.01,-0.00,0.00,0.42,0.03,9.65,0.01,-0.00,0.00,0.66,0.33,9.84,0.01,0.00,0.00,0.47,0.15,10.15,0.01,0.01,-0.00,0.80,0.04,9.71,0.01,0.00,-0.00,2.54,-0.02,9.48,3938.4304,10552.3740,0.32
662508768,0.02,-0.00,-0.00,0.43,0.19,9.88,0.01,-0.00,0.00,0.65,0.35,9.63,0.01,0.00,0.00,0.46,0.12,9.45,0.01,0.01,0.00,0.75,0.00,9.91,0.02,-0.00,-0.00,2.59,-0.01,9.93,3938.4304,10552.3740,0.32
662513794,0.01,0.00,-0.00,0.39,0.13,9.96,0.00,-0.00,0.00,0.67,0.31,9.85,0.01,0.00,-0.00,0.49,0.06,9.78,0.01,-0.00,-0.00,0.80,-0.17,9.82,0.01,0.00,-0.00,2.59,-0.32,9.84,3938.4304,10552.3740,0.32
662518675,0.01,0.00,-0.00,0.43,0.18,10.03,0.01,-0.00,-0.00,0.62,0.44,10.13,0.01,0.00,-0.00,0.51,0.11,10.15,0.01,-0.00,0.00,0.84,-0.10,9.79,0.01,0.00,-0.00,2.53,-0.26,9.36,3938.4304,10552.3740,0.32
662523553,0.00,0.00,-0.00,0.43,0.01,9.71,0.00,-0.00,0.00,0.61,0.32,10.02,0.00,0.00,-0.00,0.47,0.16,10.41,0.00,0.00,-0.00,0.89,0.08,9.96,0.00,-0.00,-0.00,2.46,0.12,9.23,3938.4304,10552.3740,0.32
662528466,0.00,-0.00,0.00,0.38,0.02,9.59,-0.00,-0.01,-0.00,0.61,0.31,9.70,-0.00,0.00,-0.00,0.43,0.19,9.81,-0.01,0.01,0.00,0.75,0.12,10.03,-0.00,-0.00,-0.00,2.46,0.12,9.52,3938.4304,10552.3740,0.32
662533417,0.01,-0.00,0.00,0.40,0.22,9.81,-0.00,-0.00,0.00,0.65,0.45,9.39,0.00,0.00,0.00,0.42,0.18,9.35,0.00,0.00,0.00,0.68,0.05,9.67,0.01,-0.00,-0.00,2.59,-0.19,9.94,3938.4304,10552.3740,0.32
662538489,-0.00,-0.00,0.00,0.43,0.05,9.45,-0.01,-0.00,-0.00,0.59,0.20,9.21,-0.00,0.00,-0.00,0.43,0.03,9.83,0.00,-0.00,0.00,0.82,-0.14,10.11,0.00,0.00,-0.00,2.56,-0.29,9.41,3938.4304,10552.3740,0.32
662543525,-0.00,-0.00,0.00,0.39,0.12,9.94,-0.00,-0.00,0.00,0.65,0.31,9.87,-0.00,0.00,-0.00,0.43,0.07,9.71,0.00,-0.00,-0.00,0.74,-0.13,10.13,0.01,-0.00,-0.00,2.53,-0.25,9.32,3938.4304,10552.3740,0.32
662548564,-0.00,-0.00,0.00,0.39,0.08,9.93,-0.00,-0.00,0.00,0.60,0.36,9.95,-0.00,0.00,-0.00,0.40,0.17,10.22,0.00,0.00,-0.00,0.81,0.07,10.38,0.00,-0.00,-0.00,2.53,-0.02,9.27,3938.4304,10552.3740,0.32
662553603,-0.00,0.00,0.00,0.44,0.07,9.80,-0.00,-0.00,-0.00,0.63,0.33,9.75,-0.00,0.00,0.00,0.45,0.12,9.84,-0.00,0.01,0.00,0.80,0.07,10.06,-0.01,-0.00,-0.00,2.56,0.01,9.53,3938.4304,10552.3740,0.32
662558289,-0.00,-0.00,0.00,0.42,0.03,9.75,-0.01,-0.00,0.00,0.61,0.27,9.68,-0.01,0.00,-0.00,0.46,0.09,9.76,-0.00,0.01,-0.00,0.80,0.01,9.76,0.01,-0.00,-0.00,2.53,0.03,9.53,3938.4304,10552.3740,0.32
662563005,-0.00,-0.00,-0.00,0.42,0.12,9.93,-0.01,-0.00,0.00,0.64,0.40,9.88,-0.00,0.00,-0.00,0.45,0.14,9.92,0.00,0.01,-0.00,0.79,0.05,9.94,0.01,-0.01,0.00,2.56,0.02,9.52,3938.4304,10552.3740,0.32
662567653,-0.00,-0.00,0.00,0.37,0.14,10.03,-0.00,-0.00,0.00,0.61,0.41,10.04,-0.00,0.00,-0.00,0.46,0.16,10.01,-0.00,0.00,0.00,0.79,0.03,9.85,-0.00,-0.01,-0.00,2.53,-0.03,9.50,3938.4304,10552.3740,0.32
662577716,0.00,-0.00,0.00,0.43,0.13,9.95,-0.00,-0.00,0.00,0.67,0.38,9.91,-0.00,0.00,0.00,0.45,0.14,9.87,0.00,0.00,-0.00,0.82,-0.03,9.72,-0.00,-0.00,-0.00,2.51,-0.07,9.32,3938.4304,10552.3740,0.32
662582439,0.00,-0.00,0.00,0.45,0.13,9.98,0.00,-0.00,0.00,0.69,0.37,9.96,0.00,0.00,0.00,0.51,0.12,9.86,0.01,0.00,-0.00,0.79,-0.04,9.61,0.00,0.00,-0.00,2.44,-0.08,9.11,3938.4304,10552.3740,0.32
662587174,0.01,0.00,0.00,0.40,0.20,10.03,0.01,-0.00,0.00,0.63,0.43,10.03,0.01,0.00,-0.00,0.49,0.14,9.90,0.01,-0.00,-0.00,0.78,-0.05,9.61,0.01,0.00,-0.00,2.44,-0.10,9.30,3938.4304,10552.3740,0.32
662591802,0.01,0.00,0.00,0.41,0.11,9.83,0.01,-0.00,0.00,0.62,0.36,9.97,0.01,0.00,-0.00,0.51,0.10,9.90,0.00,-0.00,0.00,0.78,-0.04,9.69,0.01,0.01,-0.00,2.53,-0.10,9.56,3938.4304,10552.3740,0.32
662596739,0.01,0.00,0.00,0.45,0.19,9.85,0.01,-0.00,0.00,0.64,0.36,9.87,0.00,0.00,0.00,0.52,0.13,9.76,-0.00,0.00,0.00,0.77,-0.08,9.81,0.01,0.00,-0.00,2.54,-0.16,9.72,3938.4304,10552.3740,0.32
662601684,0.01,0.00,0.00,0.40,0.13,9.78,0.01,-0.00,0.00,0.64,0.36,9.89,0.00,-0.00,0.00,0.47,0.09,9.89,0.01,-0.00,-0.00,0.79,-0.10,9.83,0.01,-0.00,-0.00,2.57,-0.18,9.70,3938.4304,10552.3740,0.32
662606658,0.01,0.00,0.00,0.38,0.18,9.98,0.01,-0.00,-0.00,0.66,0.40,9.99,0.01,0.00,0.00,0.48,0.11,9.91,0.00,-0.00,0.00,0.76,-0.07,9.78,0.00,-0.00,0.00,2.49,-0.20,9.39,3938.4304,10552.3740,0.32
662611637,0.01,0.00,0.00,0.39,0.15,9.86,0.01,-0.00,0.00,0.62,0.33,9.90,0.01,0.00,-0.00,0.44,0.10,10.00,0.01,-0.00,-0.00,0.76,-0.05,9.72,0.01,-0.00,-0.00,2.43,-0.05,9.23,3938.4304,10552.3740,0.32
662616648,0.01,-0.00,0.00,0.39,0.13,9.91,0.01,-0.00,0.00,0.62,0.38,9.86,0.00,0.00,0.00,0.45,0.12,9.90,0.00,0.00,0.00,0.78,-0.05,9.71,0.01,0.00,-0.00,2.43,-0.03,9.25,3938.4304,10552.3740,0.32
662621668,0.00,-0.00,0.00,0.40,0.08,9.85,0.00,-0.00,0.00,0.62,0.34,9.91,0.00,0.00,-0.00,0.47,0.10,9.92,0.00,0.00,0.00,0.74,-0.06,9.74,0.01,0.01,-0.00,2.50,-0.07,9.42,3938.4304,10552.3740,0.32
662626701,0.00,-0.00,-0.00,0.42,0.13,9.88,0.00,-0.00,0.00,0.62,0.41,9.95,-0.00,0.00,-0.00,0.48,0.14,9.96,0.00,0.01,-0.00,0.78,0.00,9.96,0.01,0.00,-0.00,2.56,-0.07,9.64,3938.4304,10552.3740,0.32
662631669,-0.00,0.00,0.00,0.43,0.17,9.91,-0.00,-0.00,0.00,0.65,0.37,9.93,-0.00,0.00,-0.00,0.46,0.14,9.97,0.00,0.00,-0.00,0.79,-0.04,9.94,-0.00,-0.00,-0.00,2.58,-0.08,9.74,3938.4304,10552.3740,0.32
662636527,-0.00,0.00,0.00,0.45,0.10,9.86,-0.00,-0.00,0.00,0.65,0.42,9.84,0.00,0.00,-0.00,0.47,0.14,9.92,-0.00,0.00,0.00,0.78,-0.06,9.89,-0.00,-0.01,0.00,2.55,-0.13,9.56,3938.4304,10552.3740,0.32
662641395,-0.00,-0.00,0.00,0.44,0.17,9.81,-0.01,-0.00,0.00,0.66,0.36,9.79,-0.01,0.00,-0.00,0.50,0.08,9.81,-0.01,0.00,-0.00,0.81,-0.03,9.77,-0.01,-0.01,-0.00,2.56,-0.05,9.47,3938.4304,10552.3740,0.32
662646372,-0.01,0.00,0.00,0.44,0.10,9.87,-0.01,-0.01,-0.00,0.67,0.31,9.77,-0.01,0.00,-0.00,0.50,0.09,9.75,-0.01,-0.00,-0.00,0.80,-0.08,9.74,-0.00,-0.00,0.00,2.53,-0.11,9.51,3938.4304,10552.3740,0.32
662651400,-0.01,0.00,0.00,0.45,0.12,9.83,-0.01,-0.00,0.00,0.64,0.35,9.84,-0.01,-0.00,0.00,0.48,0.10,9.83,-0.01,0.00,-0.00,0.80,-0.06,9.94,-0.00,-0.00,0.00,2.58,-0.13,9.65,3938.4304,10552.3740,0.32
662663881,-0.01,-0.00,0.00,0.46,0.09,9.73,-0.01,-0.00,0.00,0.65,0.35,9.84,-0.01,0.00,-0.00,0.44,0.11,9.85,-0.01,-0.00,-0.00,0.80,-0.04,9.86,-0.00,-0.00,0.00,2.53,-0.08,9.60,3938.4304,10552.3740,0.32
662668904,-0.00,0.00,0.00,0.42,0.16,9.84,-0.00,-0.00,0.00,0.62,0.35,9.90,-0.01,0.00,0.00,0.49,0.14,9.94,-0.01,0.00,0.00,0.82,-0.04,9.91,-0.00,-0.00,-0.00,2.54,-0.13,9.60,3938.4304,10552.3740,0.32
662673658,0.00,0.00,0.00,0.40,0.14,9.81,0.00,-0.00,0.00,0.62,0.37,9.81,-0.00,0.00,-0.00,0.45,0.07,9.86,-0.00,0.00,0.00,0.76,-0.04,9.86,-0.00,-0.01,0.00,2.53,-0.13,9.38,3938.4304,10552.3740,0.32
662678366,0.01,-0.00,0.00,0.45,0.15,9.88,0.00,-0.00,0.00,0.66,0.36,9.82,0.00,0.00,-0.00,0.49,0.08,9.83,0.01,0.00,-0.00,0.79,-0.04,9.62,0.00,-0.00,-0.00,2.51,-0.08,9.22,3938.4304,10552.3740,0.32
662682985,0.01,-0.00,-0.00,0.41,0.11,9.84,0.00,-0.00,-0.00,0.64,0.32,9.89,0.01,0.00,-0.00,0.49,0.07,9.99,0.01,0.00,0.00,0.79,-0.05,9.79,0.01,0.00,-0.00,2.47,-0.06,9.15,3938.4304,10552.3740,0.32
662688767,0.00,-0.00,-0.00,0.41,0.16,9.88,0.00,-0.00,0.00,0.64,0.35,9.85,0.00,0.00,0.00,0.47,0.13,9.88,0.01,0.01,0.00,0.78,-0.02,9.89,0.01,0.00,-0.00,2.57,-0.04,9.55,3938.4304,10552.3740,0.32
662693456,0.01,-0.00,-0.00,0.42,0.18,10.01,0.00,-0.00,0.00,0.62,0.41,9.99,0.00,0.00,0.00,0.53,0.10,9.82,0.00,0.01,-0.00,0.77,0.00,9.79,0.01,0.00,-0.00,2.61,-0.11,9.91,3938.4304,10552.3740,0.32
662698197,0.00,-0.00,0.00,0.44,0.05,9.42,-0.00,-0.00,0.00,0.57,0.30,9.63,0.00,0.00,-0.00,0.47,0.10,9.75,0.00,0.00,0.00,0.73,-0.02,10.39,0.00,-0.00,-0.00,2.55,-0.08,9.24,3938.4304,10552.3740,0.32
662703253,-0.01,-0.00,0.00,0.40,0.31,10.21,-0.01,-0.00,0.00,0.68,0.56,9.88,-0.01,0.00,0.00,0.43,0.17,9.42,-0.00,0.00,-0.00,0.67,0.05,10.39,0.00,-0.01,-0.00,2.56,-0.14,9.38,3938.4304,10552.3740,0.32
662708267,-0.04,-0.00,-0.00,0.44,-0.41,7.93,-0.05,-0.01,0.00,0.51,-0.14,8.29,-0.05,0.00,-0.00,0.35,0.00,9.93,-0.03,0.01,0.00,0.73,0.14,11.74,-0.01,-0.00,0.00,2.73,0.26,9.27,3938.4304,10552.3740,0.32
662713234,0.00,-0.00,0.00,0.40,0.17,10.17,-0.01,-0.01,0.00,0.66,0.25,9.46,-0.01,0.01,0.00,0.46,-0.02,8.78,0.00,0.01,0.00,0.65,-0.13,10.01,0.01,-0.03,-0.00,2.82,-0.64,10.68,3938.4304,10552.3740,0.32
662718170,0.00,-0.00,0.00,0.42,0.14,9.89,0.01,-0.00,0.00,0.61,0.35,9.67,0.01,0.01,0.00,0.38,0.11,9.90,0.03,0.00,0.00,0.72,0.07,11.12,0.01,-0.03,-0.00,2.82,-0.01,9.74,3938.4304,10552.3740,0.32
662723103,-0.02,0.00,0.00,0.37,0.11,9.97,-0.02,-0.01,0.00,0.63,0.29,9.67,-0.02,-0.00,-0.00,0.46,-0.03,9.18,-0.02,0.01,0.00,0.71,-0.19,9.29,-0.04,0.01,0.01,2.41,-0.22,9.20,3938.4304,10552.3740,0.32
662727983,-0.01,-0.00,-0.00,0.41,0.09,9.72,-0.01,-0.00,0.00,0.68,0.27,9.55,-0.00,0.01,-0.00,0.48,-0.02,9.29,0.02,0.01,-0.00,0.78,-0.19,9.15,0.04,-0.00,-0.01,2.37,-0.22,9.15,3938.4304,10552.3740,0.32
662732958,-0.01,-0.00,-0.00,0.41,0.20,10.16,-0.01,-0.00,-0.00,0.63,0.44,10.18,-0.01,-0.00,-0.00,0.47,0.19,10.21,-0.01,0.01,0.00,0.83,0.05,10.48,0.01,0.01,-0.00,2.64,0.17,9.95,3938.4304,10552.3740,0.32
662738003,-0.02,-0.00,-0.00,0.40,0.14,9.94,-0.02,-0.00,0.00,0.65,0.35,9.85,-0.02,-0.00,0.00,0.46,0.10,9.83,-0.03,0.00,-0.00,0.78,-0.12,9.84,-0.03,0.00,0.00,2.55,-0.38,9.87,3938.4304,10552.3740,0.32
662743029,-0.01,0.00,0.00,0.41,0.16,9.84,-0.01,0.00,0.00,0.62,0.34,9.86,-0.00,0.00,-0.00,0.46,0.14,10.04,-0.00,-0.01,-0.00,0.76,-0.01,10.08,-0.00,-0.02,0.00,2.57,-0.08,9.68,3938.4304,10552.3740,0.32
662748023,-0.02,0.00,-0.00,0.43,0.16,9.93,-0.02,-0.00,0.00,0.62,0.38,9.85,-0.02,-0.00,-0.00,0.49,0.16,9.89,-0.03,-0.00,-0.00,0.79,0.01,9.87,-0.04,-0.00,0.01,2.52,0.04,9.29,3938.4304,10552.3740,0.32
662752953,-0.02,0.00,0.00,0.44,0.08,9.83,-0.02,-0.00,0.00,0.63,0.32,9.69,-0.02,-0.00,-0.00,0.53,0.06,9.48,-0.02,-0.00,0.00,0.74,-0.13,9.36,-0.01,-0.00,0.00,2.41,-0.23,9.10,3938.4304,10552.3740,0.32
662757877,-0.02,0.00,-0.00,0.43,0.16,9.91,-0.02,-0.00,-0.00,0.64,0.37,9.98,-0.02,0.00,-0.00,0.43,0.13,10.05,-0.01,0.00,-0.00,0.78,-0.02,10.11,0.00,0.00,-0.00,2.56,0.02,9.35,3938.4304,10552.3740,0.32
662762806,-0.03,-0.00,-0.00,0.42,0.15,10.02,-0.04,-0.00,0.00,0.66,0.41,10.06,-0.03,-0.00,-0.00,0.46,0.17,10.13,-0.03,0.01,-0.00,0.79,-0.02,10.14,-0.03,0.02,0.00,2.64,-0.07,9.73,3938.4304,10552.3740,0.32
662767757,-0.04,-0.00,0.00,0.41,0.10,9.79,-0.05,-0.00,0.00,0.62,0.34,9.72,-0.04,-0.00,-0.00,0.45,0.04,9.78,-0.04,0.00,-0.00,0.74,-0.07,9.96,-0.03,0.00,0.01,2.62,-0.12,10.03,3938.4304,10552.3740,0.32
662772695,-0.05,-0.00,0.00,0.40,0.12,9.97,-0.05,-0.00,0.00,0.57,0.42,10.16,-0.05,-0.00,-0.00,0.54,0.16,10.15,-0.04,-0.00,-0.00,0.79,0.04,10.19,-0.04,-0.01,0.01,2.61,0.02,10.07,3938.4304,10552.3740,0.32
662777427,-0.06,-0.00,-0.01,0.44,0.24,9.82,-0.07,-0.01,0.00,0.60,0.45,10.07,-0.07,-0.01,0.00,0.46,0.18,10.10,-0.08,-0.00,0.00,0.73,0.02,10.12,-0.08,-0.01,0.02,2.54,0.01,9.78,3938.4304,10552.3740,0.32
662782169,-0.06,-0.01,-0.00,0.40,0.07,9.67,-0.07,-0.01,0.00,0.61,0.27,9.62,-0.07,-0.01,-0.00,0.48,0.07,9.58,-0.08,-0.01,0.00,0.78,-0.11,9.66,-0.08,-0.02,0.02,2.46,-0.17,9.42,3938.4304,10552.3740,0.32
662788034,-0.05,-0.00,0.00,0.39,0.03,9.71,-0.05,-0.01,0.00,0.62,0.29,9.70,-0.06,-0.00,-0.00,0.48,0.04,9.68,-0.06,-0.01,0.00,0.73,-0.10,9.56,-0.05,-0.02,0.01,2.43,-0.16,9.08,3938.4304,10552.3740,0.32
662792714,-0.04,-0.00,0.00,0.42,0.09,9.80,-0.05,-0.01,-0.00,0.61,0.29,9.76,-0.05,-0.00,0.00,0.48,0.08,9.75,-0.05,-0.00,0.00,0.78,-0.10,9.71,-0.04,-0.00,0.01,2.43,-0.19,8.92,3938.4304,10552.3740,0.32
662797290,-0.03,-0.00,-0.00,0.43,0.08,9.69,-0.04,-0.00,-0.00,0.60,0.24,9.65,-0.04,-0.00,-0.00,0.45,0.04,9.60,-0.03,0.01,-0.00,0.74,-0.13,9.69,-0.03,0.01,0.01,2.44,-0.24,9.11,3938.4304,10552.3740,0.32
662801884,-0.02,-0.00,-0.00,0.42,0.09,9.71,-0.02,-0.00,0.00,0.60,0.29,9.67,-0.02,0.00,-0.00,0.45,0.05,9.63,-0.01,0.01,0.00,0.76,-0.15,9.71,-0.01,0.01,0.00,2.52,-0.16,9.45,3938.4304,10552.3740,0.32
662806853,-0.02,0.00,-0.00,0.42,0.09,9.86,-0.02,-0.00,-0.00,0.61,0.34,9.87,-0.02,0.00,-0.00,0.49,0.13,9.88,-0.01,0.00,0.00,0.76,-0.09,9.96,-0.01,0.01,-0.00,2.57,-0.12,9.76,3938.4304,10552.3740,0.32
662811858,-0.02,-0.00,0.00,0.39,0.11,9.88,-0.03,-0.00,0.00,0.66,0.34,9.87,-0.02,0.00,-0.00,0.50,0.09,9.90,-0.02,0.00,0.00,0.77,-0.07,9.99,-0.02,-0.00,0.00,2.59,-0.08,9.87,3938.4304,10552.3740,0.32
662818199,-0.02,-0.00,0.00,0.41,0.10,9.85,-0.03,-0.00,0.00,0.61,0.30,9.82,-0.03,0.00,-0.00,0.46,0.10,9.86,-0.03,-0.00,0.00,0.77,-0.07,9.94,-0.03,-0.01,0.01,2.56,-0.13,9.73,3938.4304,10552.3740,0.32
662823223,-0.03,-0.00,0.00,0.43,0.07,9.85,-0.03,-0.01,0.00,0.66,0.32,9.84,-0.03,-0.00,0.00,0.48,0.08,9.88,-0.03,-0.01,0.00,0.78,-0.01,9.85,-0.03,-0.02,0.01,2.54,-0.14,9.43,3938.4304,10552.3740,0.32
662828247,-0.02,-0.00,0.00,0.42,0.04,9.79,-0.03,-0.00,-0.00,0.64,0.26,9.73,-0.03,-0.00,-0.00,0.50,0.09,9.71,-0.03,-0.00,0.00,0.78,-0.08,9.69,-0.03,-0.01,0.01,2.51,-0.23,9.26,3938.4304,10552.3740,0.32
662833220,-0.01,-0.00,-0.00,0.43,0.06,9.71,-0.02,-0.00,-0.00,0.68,0.28,9.67,-0.02,-0.00,-0.00,0.49,0.02,9.64,-0.01,0.00,0.00,0.79,-0.10,9.58,-0.01,-0.00,0.00,2.52,-0.24,9.15,3938.4304,10552.3740,0.32
662838069,-0.00,-0.00,0.00,0.42,0.09,9.88,-0.01,-0.00,0.00,0.65,0.33,9.79,-0.00,0.00,-0.00,0.50,0.06,9.82,-0.00,0.01,-0.00,0.79,-0.10,9.82,0.01,0.00,-0.00,2.54,-0.16,9.32,3938.4304,10552.3740,0.32
662842940,-0.01,0.00,0.00,0.42,0.08,9.88,-0.01,-0.00,-0.00,0.65,0.35,9.92,-0.01,0.00,-0.00,0.48,0.10,9.95,-0.00,0.01,-0.00,0.78,-0.02,9.99,0.00,0.01,0.00,2.58,-0.10,9.57,3938.4304,10552.3740,0.32
662847876,-0.02,-0.00,-0.00,0.45,0.06,9.85,-0.02,-0.00,-0.00,0.64,0.36,9.83,-0.02,0.00,-0.00,0.50,0.09,9.82,-0.01,0.01,-0.00,0.76,-0.07,9.94,-0.01,0.01,0.00,2.56,-0.11,9.83,3938.4304,10552.3740,0.32
662852848,-0.02,-0.00,-0.00,0.46,0.10,9.82,-0.02,-0.00,0.00,0.65,0.31,9.84,-0.02,-0.00,-0.00,0.49,0.06,9.86,-0.02,-0.00,-0.00,0.82,-0.08,10.03,-0.01,-0.01,0.00,2.59,-0.09,9.89,3938.4304,10552.3740,0.32
662857905,-0.02,-0.00,0.00,0.39,0.11,9.87,-0.02,-0.00,-0.00,0.63,0.32,9.90,-0.03,-0.00,-0.00,0.47,0.09,9.94,-0.03,-0.01,0.00,0.82,-0.03,10.00,-0.03,-0.01,0.01,2.57,-0.04,9.71,3938.4304,10552.3740,0.32
662862921,-0.02,-0.00,0.00,0.43,0.05,9.85,-0.03,-0.00,0.00,0.65,0.30,9.81,-0.03,-0.00,0.00,0.47,0.05,9.82,-0.03,-0.01,-0.00,0.81,-0.08,9.79,-0.03,-0.01,0.00,2.52,-0.18,9.39,3938.4304,10552.3740,0.32
662867920,-0.02,-0.00,0.00,0.41,0.10,9.83,-0.02,-0.00,0.00,0.65,0.28,9.79,-0.02,-0.00,-0.00,0.48,0.08,9.73,-0.02,-0.00,0.00,0.81,-0.11,9.73,-0.02,-0.01,0.00,2.53,-0.16,9.24,3938.4304,10552.3740,0.32
662872916,-0.02,-0.00,-0.00,0.40,0.11,9.85,-0.02,-0.00,-0.00,0.62,0.33,9.83,-0.02,0.00,-0.00,0.47,0.07,9.84,-0.02,0.00,-0.00,0.80,-0.08,9.84,-0.01,0.01,0.00,2.52,-0.14,9.32,3938.4304,10552.3740,0.32
662877613,-0.03,-0.00,-0.00,0.41,0.10,9.87,-0.03,-0.00,-0.00,0.65,0.34,9.85,-0.03,0.00,-0.00,0.46,0.07,9.88,-0.02,0.01,0.00,0.78,-0.08,9.91,-0.02,0.01,0.01,2.55,-0.11,9.59,3938.4304,10552.3740,0.32
662882302,-0.03,-0.00,-0.00,0.40,0.11,9.85,-0.03,-0.00,0.00,0.61,0.32,9.88,-0.03,-0.00,0.00,0.46,0.10,9.92,-0.02,0.01,-0.00,0.80,-0.08,9.95,-0.02,0.00,0.00,2.56,-0.14,9.86,3938.4304,10552.3740,0.32
662886983,-0.04,-0.00,-0.00,0.43,0.09,9.95,-0.04,-0.00,-0.00,0.63,0.35,9.93,-0.04,-0.00,-0.00,0.48,0.09,9.99,-0.04,0.00,-0.00,0.80,-0.07,10.14,-0.03,-0.01,0.01,2.59,-0.06,9.95,3938.4304,10552.3740,0.32
662892841,-0.05,-0.00,-0.00,0.41,0.09,9.94,-0.05,-0.01,0.00,0.63,0.34,9.92,-0.05,-0.00,-0.00,0.47,0.09,9.95,-0.05,-0.00,-0.00,0.78,-0.05,10.07,-0.06,-0.01,0.01,2.58,-0.11,9.83,3938.4304,10552.3740,0.32
662897597,-0.05,-0.00,0.00,0.42,0.06,9.81,-0.05,-0.01,0.00,0.66,0.28,9.75,-0.06,-0.00,-0.00,0.47,0.07,9.80,-0.06,-0.01,0.00,0.81,-0.10,9.84,-0.06,-0.02,0.01,2.56,-0.11,9.61,3938.4304,10552.3740,0.32
662902321,-0.05,-0.00,0.00,0.43,0.03,9.77,-0.05,-0.01,0.00,0.68,0.30,9.71,-0.05,-0.01,-0.00,0.49,0.06,9.71,-0.05,-0.01,0.00,0.78,-0.14,9.70,-0.05,-0.02,0.01,2.53,-0.21,9.33,3938.4304,10552.3740,0.32
662907370,-0.04,-0.00,-0.00,0.43,0.05,9.75,-0.04,-0.01,0.00,0.63,0.31,9.73,-0.04,-0.00,-0.00,0.49,0.05,9.70,-0.04,-0.00,-0.00,0.78,-0.10,9.71,-0.04,-0.01,0.01,2.49,-0.19,9.10,3938.4304,10552.3740,0.32
662912270,-0.03,-0.00,0.00,0.44,0.04,9.75,-0.03,-0.00,0.00,0.65,0.28,9.66,-0.03,0.00,-0.00,0.49,0.01,9.61,-0.03,0.00,0.00,0.83,-0.13,9.57,-0.03,0.00,0.01,2.49,-0.24,9.16,3938.4304,10552.3740,0.32
662917169,-0.03,-0.00,0.00,0.44,0.10,9.90,-0.03,-0.00,0.00,0.64,0.35,9.91,-0.03,0.00,-0.00,0.46,0.04,9.97,-0.01,0.01,-0.00,0.80,-0.08,9.97,-0.01,0.00,0.00,2.59,-0.10,9.39,3938.4304,10552.3740,0.32
662922139,-0.03,-0.00,0.00,0.45,0.10,9.89,-0.04,-0.00,0.00,0.64,0.30,9.87,-0.03,-0.00,-0.00,0.49,0.08,9.93,-0.03,0.01,-0.00,0.79,-0.06,9.98,-0.04,0.01,0.01,2.60,-0.10,9.82,3938.4304,10552.3740,0.32
662927152,-0.03,-0.00,-0.00,0.41,0.02,9.66,-0.03,-0.00,0.00,0.62,0.25,9.63,-0.03,-0.00,-0.00,0.48,0.02,9.56,-0.03,0.00,-0.00,0.77,-0.15,9.72,-0.02,-0.00,0.00,2.55,-0.23,9.94,3938.4304,10552.3740,0.32
662932168,-0.02,-0.00,0.00,0.44,0.11,9.88,-0.02,-0.01,0.00,0.66,0.31,9.84,-0.02,-0.00,-0.00,0.46,0.06,9.92,-0.02,-0.01,-0.00,0.77,-0.10,9.94,-0.02,-0.02,0.00,2.58,-0.13,9.69,3938.4304,10552.3740,0.32
662937222,-0.02,-0.00,0.00,0.46,0.06,9.86,-0.02,-0.01,0.00,0.63,0.30,9.84,-0.03,-0.00,-0.00,0.48,0.06,9.85,-0.03,-0.01,-0.00,0.77,-0.09,9.82,-0.03,-0.01,0.01,2.53,-0.19,9.29,3938.4304,10552.3740,0.32
662942250,-0.01,-0.00,-0.00,0.43,0.00,9.74,-0.02,-0.00,0.00,0.64,0.24,9.64,-0.02,0.00,-0.00,0.49,0.01,9.57,-0.02,-0.00,-0.00,0.79,-0.13,9.57,-0.01,-0.01,0.00,2.49,-0.28,9.08,3938.4304,10552.3740,0.32
662947268,-0.01,-0.00,0.00,0.43,0.05,9.80,-0.00,-0.00,0.00,0.61,0.30,9.81,-0.00,0.00,0.00,0.51,0.05,9.81,0.00,0.01,-0.00,0.81,-0.08,9.75,0.01,0.00,-0.00,2.52,-0.16,9.20,3938.4304,10552.3740,0.32
662952134,-0.01,-0.00,0.00,0.46,0.10,9.84,-0.01,-0.00,0.00,0.64,0.34,9.87,-0.01,0.00,-0.00,0.48,0.06,9.87,0.00,0.01,-0.00,0.82,-0.05,9.94,0.00,0.01,-0.00,2.56,-0.15,9.52,3938.4304,10552.3740,0.32
662957000,-0.01,0.00,-0.00,0.46,0.04,9.75,-0.01,-0.00,0.00,0.63,0.24,9.75,-0.01,0.00,-0.00,0.47,-0.02,9.75,-0.00,0.01,0.00,0.78,-0.11,9.94,-0.00,0.01,-0.00,2.60,-0.20,9.88,3938.4304,10552.3740,0.32
662961974,-0.01,-0.00,0.00,0.44,0.08,9.89,-0.01,-0.00,0.00,0.63,0.29,9.93,-0.01,0.00,-0.00,0.48,0.06,9.92,-0.00,0.00,-0.00,0.82,-0.05,10.05,-0.00,-0.01,0.00,2.59,-0.16,9.96,3938.4304,10552.3740,0.32
662966993,-0.02,-0.00,-0.00,0.43,0.12,9.93,-0.02,-0.01,0.00,0.62,0.35,9.96,-0.02,-0.00,-0.00,0.46,0.12,10.04,-0.02,-0.00,0.00,0.78,-0.04,10.12,-0.02,-0.01,0.01,2.61,-0.06,9.81,3938.4304,10552.3740,0.32
662973252,-0.03,-0.00,0.00,0.42,0.05,9.86,-0.03,-0.01,-0.00,0.62,0.27,9.82,-0.03,-0.00,0.00,0.47,0.07,9.78,-0.04,-0.01,0.00,0.76,-0.11,9.82,-0.03,-0.01,0.01,2.53,-0.17,9.49,3938.4304,10552.3740,0.32
662978311,-0.03,-0.00,0.00,0.38,0.11,10.24,-0.03,-0.00,0.00,0.63,0.39,10.14,-0.03,-0.00,-0.00,0.46,0.03,10.01,-0.03,-0.00,-0.00,0.75,-0.10,9.85,-0.03,-0.01,0.01,2.50,-0.18,9.31,3938.4304,10552.3740,0.32
662983040,-0.03,-0.00,-0.00,0.41,0.00,9.65,-0.04,-0.01,-0.00,0.63,0.18,9.51,-0.04,-0.01,-0.00,0.47,-0.03,9.73,-0.04,-0.00,0.00,0.79,-0.15,9.72,-0.05,0.01,0.01,2.47,-0.21,9.21,3938.4304,10552.3740,0.32
662987831,-0.03,-0.00,0.00,0.46,0.06,9.78,-0.03,-0.00,0.00,0.67,0.23,9.67,-0.03,0.00,-0.00,0.51,-0.06,9.57,-0.02,0.00,0.00,0.79,-0.20,9.59,-0.01,-0.00,0.00,2.50,-0.27,9.51,3938.4304,10552.3740,0.32
662997801,-0.03,-0.00,-0.00,0.42,0.08,9.79,-0.04,-0.00,0.00,0.62,0.29,9.76,-0.04,-0.00,-0.00,0.46,0.07,9.84,-0.04,0.00,0.00,0.75,-0.06,10.06,-0.04,0.01,0.01,2.57,-0.12,9.77,3938.4304,10552.3740,0.32
663002509,-0.04,-0.00,-0.00,0.42,0.03,9.83,-0.04,-0.00,0.00,0.66,0.27,9.70,-0.04,-0.00,-0.00,0.46,-0.02,9.65,-0.03,-0.00,0.00,0.75,-0.16,9.72,-0.03,-0.01,0.01,2.56,-0.22,9.74,3938.4304,10552.3740,0.32
663007207,-0.03,-0.00,0.00,0.43,0.07,9.92,-0.04,-0.00,-0.00,0.68,0.31,9.96,-0.03,-0.00,-0.00,0.47,0.07,9.98,-0.03,-0.00,0.00,0.79,-0.07,10.01,-0.03,-0.02,0.01,2.55,-0.10,9.61,3938.4304,10552.3740,0.32
663011941,-0.04,-0.00,0.00,0.47,0.07,9.91,-0.05,-0.01,0.00,0.64,0.32,9.94,-0.05,-0.01,-0.00,0.44,0.03,10.00,-0.05,-0.00,-0.00,0.78,-0.09,10.03,-0.05,-0.01,0.01,2.55,-0.11,9.52,3938.4304,10552.3740,0.32
663017015,-0.05,-0.00,-0.00,0.45,0.03,9.85,-0.05,-0.01,0.00,0.62,0.19,9.77,-0.05,-0.00,-0.00,0.47,0.00,9.69,-0.05,-0.00,-0.00,0.75,-0.15,9.68,-0.05,-0.00,0.01,2.49,-0.23,9.48,3938.4304,10552.3740,0.32
663022088,-0.04,-0.00,-0.00,0.41,0.06,9.85,-0.04,-0.00,0.00,0.62,0.32,9.82,-0.04,-0.00,-0.00,0.48,0.00,9.86,-0.04,-0.00,-0.00,0.77,-0.13,9.87,-0.03,-0.01,0.01,2.55,-0.21,9.51,3938.4304,10552.3740,0.32
663027128,-0.05,-0.00,-0.00,0.41,0.04,9.87,-0.05,-0.01,0.00,0.63,0.32,9.90,-0.05,-0.00,-0.00,0.46,0.11,10.02,-0.05,0.00,-0.00,0.78,-0.10,9.96,-0.05,-0.00,0.01,2.55,-0.09,9.55,3938.4304,10552.3740,0.32
663032050,-0.06,-0.00,-0.00,0.44,0.01,9.85,-0.06,-0.01,0.00,0.61,0.27,9.76,-0.06,-0.00,-0.00,0.46,-0.01,9.87,-0.06,0.00,0.00,0.80,-0.14,9.90,-0.06,0.00,0.01,2.55,-0.23,9.64,3938.4304,10552.3740,0.32
663036959,-0.05,-0.00,-0.00,0.42,0.01,9.85,-0.05,-0.01,0.00,0.62,0.24,9.82,-0.06,-0.00,-0.00,0.48,0.02,9.80,-0.05,0.00,-0.00,0.77,-0.11,9.89,-0.05,-0.00,0.01,2.55,-0.17,9.73,3938.4304,10552.3740,0.32
663041951,-0.05,-0.00,0.00,0.46,0.02,9.83,-0.06,-0.00,-0.00,0.63,0.25,9.83,-0.06,-0.00,0.00,0.48,-0.01,9.86,-0.06,-0.00,0.00,0.80,-0.11,9.91,-0.06,-0.01,0.01,2.56,-0.19,9.63,3938.4304,10552.3740,0.32
663046977,-0.05,-0.00,0.00,0.41,0.01,9.84,-0.05,-0.01,0.00,0.65,0.28,9.76,-0.06,-0.01,-0.00,0.46,0.02,9.72,-0.06,-0.00,0.00,0.75,-0.13,9.74,-0.06,-0.01,0.01,2.53,-0.23,9.44,3938.4304,10552.3740,0.32
663052015,-0.04,-0.00,0.00,0.40,-0.03,9.77,-0.04,-0.01,0.00,0.62,0.22,9.67,-0.05,-0.00,-0.00,0.44,-0.03,9.65,-0.05,-0.00,-0.00,0.78,-0.15,9.65,-0.04,-0.01,0.01,2.49,-0.23,9.30,3938.4304,10552.3740,0.32
663057066,-0.03,-0.00,0.00,0.39,0.00,9.70,-0.03,-0.00,-0.00,0.62,0.19,9.71,-0.03,-0.00,-0.00,0.46,-0.05,9.70,-0.03,0.00,0.00,0.79,-0.15,9.68,-0.03,-0.01,0.01,2.51,-0.24,9.25,3938.4304,10552.3740,0.32
663062108,-0.02,-0.00,-0.00,0.45,0.00,9.75,-0.02,-0.00,0.00,0.65,0.21,9.69,-0.02,-0.00,-0.00,0.49,-0.03,9.67,-0.02,0.00,-0.00,0.78,-0.19,9.69,-0.02,0.00,0.01,2.48,-0.31,9.30,3938.4304,10552.3740,0.32
663067141,-0.01,-0.00,0.00,0.42,-0.02,9.70,-0.01,-0.00,-0.00,0.65,0.19,9.68,-0.01,0.00,-0.00,0.47,-0.01,9.64,-0.01,0.01,-0.00,0.75,-0.19,9.75,-0.00,0.00,-0.00,2.55,-0.24,9.50,3938.4304,10552.3740,0.32
663072057,0.00,0.00,-0.00,0.42,0.01,9.77,0.00,-0.00,0.00,0.64,0.20,9.68,0.00,0.00,-0.00,0.50,-0.03,9.73,0.00,0.00,-0.00,0.80,-0.19,9.77,0.01,0.00,-0.00,2.53,-0.25,9.58,3938.4304,10552.3740,0.32
663076978,0.03,0.00,0.00,0.48,-0.03,9.71,0.03,-0.00,0.00,0.66,0.21,9.57,0.03,-0.00,0.00,0.52,-0.05,9.54,0.02,-0.00,0.00,0.78,-0.21,9.45,0.01,-0.00,-0.00,2.48,-0.35,9.24,3938.4304,10552.3740,0.32
663081987,0.02,0.00,0.00,0.44,-0.01,9.85,0.03,0.00,0.00,0.64,0.29,9.86,0.03,0.01,0.00,0.47,0.06,9.95,0.04,0.00,-0.00,0.82,-0.07,10.03,0.05,-0.01,-0.01,2.56,-0.01,9.27,3938.4304,10552.3740,0.32
663086770,0.01,-0.00,0.01,0.39,0.08,10.01,0.01,-0.01,0.00,0.65,0.35,10.11,0.00,0.00,-0.00,0.47,0.07,10.15,0.01,0.01,0.00,0.82,-0.09,10.06,0.00,0.02,-0.00,2.60,-0.12,9.46,3938.4304,10552.3740,0.32
663091573,0.01,0.00,-0.00,0.45,-0.04,9.50,0.01,-0.00,-0.00,0.62,0.15,9.40,0.01,0.00,-0.00,0.50,-0.08,9.48,0.01,0.01,-0.00,0.75,-0.17,9.68,0.01,0.01,-0.00,2.56,-0.34,9.87,3938.4304,10552.3740,0.32
663096315,0.02,0.00,-0.01,0.40,0.01,9.96,0.03,-0.00,-0.00,0.63,0.30,9.91,0.03,0.01,0.00,0.45,0.02,9.94,0.03,0.00,-0.00,0.78,-0.15,10.02,0.04,-0.01,-0.01,2.56,-0.22,9.84,3938.4304,10552.3740,0.32
663102207,0.01,-0.00,-0.00,0.45,0.11,10.07,0.01,-0.01,0.00,0.62,0.32,10.09,0.00,-0.00,0.00,0.47,0.10,10.27,-0.00,0.00,-0.00,0.79,-0.06,10.21,-0.01,-0.00,0.00,2.58,-0.08,9.73,3938.4304,10552.3740,0.32
663106889,0.00,-0.00,0.00,0.41,0.04,9.90,0.00,-0.00,0.00,0.62,0.27,9.75,0.00,-0.00,0.00,0.46,-0.03,9.54,-0.01,0.00,0.00,0.73,-0.23,9.32,-0.01,0.00,0.00,2.47,-0.35,9.74,3938.4304,10552.3740,0.32
663111559,0.00,0.00,0.00,0.45,0.01,9.74,0.01,-0.00,0.00,0.64,0.22,9.61,0.01,0.00,0.00,0.48,-0.01,9.75,0.01,-0.01,0.00,0.78,-0.13,9.80,0.02,-0.01,-0.00,2.47,-0.23,9.23,3938.4304,10552.3740,0.32
663116546,0.01,-0.00,0.00,0.42,0.02,9.89,0.00,-0.00,-0.00,0.64,0.27,9.88,0.00,-0.00,0.00,0.44,0.03,10.10,0.00,0.00,-0.00,0.80,-0.05,9.95,0.01,0.00,-0.00,2.57,-0.09,9.43,3938.4304,10552.3740,0.32
663121527,0.00,-0.00,0.00,0.41,-0.03,9.78,-0.00,-0.00,0.00,0.63,0.19,9.59,-0.00,-0.00,-0.00,0.47,-0.04,9.78,-0.00,0.01,0.00,0.78,-0.18,9.83,-0.00,0.01,-0.00,2.54,-0.31,9.58,3938.4304,10552.3740,0.32
663127911,0.01,0.00,-0.00,0.44,0.00,9.82,0.01,-0.00,0.00,0.63,0.23,9.75,0.01,0.00,-0.00,0.45,0.01,9.92,0.02,0.00,-0.00,0.80,-0.05,9.88,0.02,-0.00,-0.00,2.54,-0.14,9.61,3938.4304,10552.3740,0.32
663132992,-0.00,0.00,0.00,0.44,0.05,9.86,-0.00,-0.00,0.00,0.62,0.29,9.93,0.00,0.00,-0.00,0.51,0.01,10.02,0.00,0.00,0.00,0.80,-0.12,10.22,0.00,0.00,-0.00,2.59,-0.13,9.72,3938.4304,10552.3740,0.32
663138057,-0.00,-0.00,0.00,0.39,-0.02,9.85,-0.01,-0.00,-0.00,0.60,0.25,9.85,-0.00,-0.00,0.00,0.46,-0.03,9.70,-0.00,0.00,-0.00,0.74,-0.16,9.91,-0.00,-0.00,0.00,2.55,-0.26,9.75,3938.4304,10552.3740,0.32
663143026,-0.00,-0.00,0.00,0.45,0.03,9.80,-0.00,-0.00,0.00,0.68,0.27,9.84,-0.00,0.00,-0.00,0.47,0.03,9.93,0.00,-0.00,0.00,0.81,-0.16,10.04,-0.00,-0.01,-0.00,2.55,-0.18,9.60,3938.4304,10552.3740,0.32
663147980,-0.01,-0.00,0.00,0.45,0.06,9.98,-0.02,-0.01,0.00,0.63,0.26,9.87,-0.02,0.00,-0.00,0.46,0.03,9.88,-0.02,0.00,0.00,0.79,-0.10,10.10,-0.01,-0.00,0.00,2.61,-0.08,9.62,3938.4304,10552.3740,0.32
663152925,-0.02,-0.00,-0.00,0.40,0.08,9.92,-0.02,-0.01,0.00,0.61,0.26,9.83,-0.02,0.00,-0.00,0.48,-0.04,9.67,-0.03,0.00,0.00,0.74,-0.26,9.87,-0.02,-0.00,0.01,2.52,-0.30,9.66,3938.4304,10552.3740,0.32
663157875,-0.02,-0.00,0.00,0.41,0.00,9.78,-0.02,-0.00,0.00,0.63,0.25,9.80,-0.02,0.00,-0.00,0.47,0.03,9.89,-0.02,0.00,0.00,0.77,-0.14,9.91,-0.01,-0.01,0.00,2.53,-0.27,9.49,3938.4304,10552.3740,0.32
663162826,-0.02,-0.00,0.00,0.41,0.02,9.80,-0.02,-0.01,0.00,0.64,0.24,9.75,-0.02,-0.00,-0.00,0.45,0.04,9.82,-0.02,0.00,0.00,0.76,-0.10,9.99,-0.02,-0.00,0.00,2.56,-0.09,9.67,3938.4304,10552.3740,0.32
663167830,-0.03,-0.00,-0.00,0.40,0.02,9.89,-0.03,-0.00,0.00,0.62,0.25,9.84,-0.03,0.00,-0.00,0.48,0.00,9.78,-0.02,0.00,0.00,0.75,-0.15,9.82,-0.02,-0.00,0.00,2.56,-0.27,9.66,3938.4304,10552.3740,0.32
663172916,-0.01,-0.00,-0.00,0.46,-0.03,9.69,-0.02,-0.01,0.00,0.62,0.20,9.69,-0.02,-0.00,-0.00,0.47,-0.04,9.74,-0.02,-0.00,0.00,0.78,-0.19,9.80,-0.02,-0.00,0.00,2.54,-0.26,9.42,3938.4304,10552.3740,0.32
663177977,-0.02,0.00,0.00,0.43,-0.01,9.72,-0.02,-0.00,0.00,0.58,0.25,9.73,-0.02,0.00,-0.00,0.45,0.03,9.81,-0.01,0.00,-0.00,0.78,-0.12,9.96,-0.00,-0.01,-0.00,2.56,-0.11,9.53,3938.4304,10552.3740,0.32
663183038,-0.01,-0.00,0.00,0.43,0.03,9.91,-0.02,-0.00,0.00,0.64,0.28,9.86,-0.02,-0.00,-0.00,0.47,0.01,9.83,-0.02,0.00,0.00,0.79,-0.14,9.81,-0.02,0.00,0.00,2.55,-0.28,9.52,3938.4304,10552.3740,0.32
663187953,-0.01,0.00,0.00,0.42,-0.03,9.74,-0.01,-0.00,0.00,0.66,0.16,9.61,-0.01,-0.00,-0.00,0.47,-0.04,9.64,-0.01,0.00,0.00,0.77,-0.20,9.86,-0.01,0.00,0.00,2.56,-0.24,9.68,3938.4304,10552.3740,0.32
663192624,-0.01,-0.00,0.00,0.39,-0.01,9.80,-0.01,-0.00,0.00,0.63,0.25,9.68,-0.01,0.00,0.00,0.47,-0.06,9.58,-0.01,0.00,0.00,0.72,-0.14,9.86,-0.01,-0.00,-0.00,2.55,-0.27,9.84,3938.4304,10552.3740,0.32
663197357,-0.01,-0.00,0.00,0.44,-0.04,9.72,-0.02,-0.00,0.00,0.66,0.21,9.68,-0.01,0.00,-0.00,0.47,-0.01,9.91,-0.01,0.00,-0.00,0.79,-0.12,10.21,-0.00,-0.01,0.00,2.60,-0.21,9.70,3938.4304,10552.3740,0.32
663203301,-0.01,-0.00,-0.00,0.44,0.03,9.92,-0.01,-0.00,0.00,0.66,0.30,9.82,-0.01,-0.00,-0.00,0.49,-0.02,9.78,-0.01,-0.00,-0.00,0.77,-0.18,9.93,-0.01,-0.00,0.00,2.56,-0.38,9.61,3938.4304,10552.3740,0.32
663208065,-0.01,0.00,0.00,0.40,0.00,9.82,-0.01,-0.00,0.00,0.62,0.29,9.84,-0.00,0.00,-0.00,0.48,0.02,9.92,-0.00,-0.00,-0.00,0.75,-0.15,10.03,-0.01,-0.01,0.00,2.55,-0.19,9.50,3938.4304,10552.3740,0.32
663212817,-0.01,-0.00,-0.00,0.43,0.03,9.85,-0.01,-0.00,0.00,0.67,0.29,9.89,-0.01,0.00,-0.00,0.51,0.00,9.82,-0.02,0.00,0.00,0.77,-0.12,9.76,-0.02,0.00,0.00,2.50,-0.13,9.40,3938.4304,10552.3740,0.32
663217521,-0.01,-0.00,-0.00,0.44,0.04,9.85,-0.02,-0.00,-0.00,0.68,0.22,9.89,-0.01,-0.00,-0.00,0.51,0.00,9.81,-0.01,0.00,0.00,0.79,-0.16,9.73,-0.01,0.00,0.00,2.48,-0.26,9.44,3938.4304,10552.3740,0.32
663222552,-0.01,-0.00,0.00,0.45,0.05,10.00,-0.01,-0.00,-0.00,0.66,0.30,10.01,-0.01,0.00,-0.00,0.48,0.03,9.94,-0.01,-0.00,0.00,0.83,-0.15,9.87,-0.01,-0.00,0.00,2.54,-0.23,9.49,3938.4304,10552.3740,0.32
663227520,-0.02,-0.00,0.00,0.41,0.04,9.83,-0.02,-0.00,0.00,0.61,0.30,9.97,-0.02,0.00,0.00,0.47,0.01,10.00,-0.02,0.00,-0.00,0.80,-0.08,10.08,-0.02,-0.00,0.00,2.59,-0.08,9.60,3938.4304,10552.3740,0.32
663232431,-0.03,-0.00,-0.00,0.45,0.00,9.76,-0.03,-0.01,-0.00,0.67,0.23,9.79,-0.03,-0.00,0.00,0.48,-0.01,9.79,-0.03,0.00,-0.00,0.77,-0.10,9.89,-0.03,0.00,0.01,2.56,-0.24,9.74,3938.4304,10552.3740,0.32
663237454,-0.02,-0.00,0.00,0.43,-0.03,9.76,-0.02,-0.00,-0.00,0.63,0.27,9.72,-0.02,0.00,-0.00,0.48,-0.03,9.81,-0.02,-0.00,0.00,0.78,-0.18,9.94,-0.02,-0.01,0.00,2.59,-0.26,9.67,3938.4304,10552.3740,0.32
663242491,-0.02,-0.00,-0.00,0.43,-0.02,9.89,-0.03,-0.01,0.00,0.64,0.25,9.93,-0.03,-0.00,-0.00,0.46,0.04,9.99,-0.03,-0.00,-0.00,0.82,-0.13,10.00,-0.02,-0.01,0.00,2.57,-0.18,9.53,3938.4304,10552.3740,0.32
663247558,-0.03,-0.00,0.00,0.39,-0.02,9.85,-0.03,-0.00,-0.00,0.65,0.26,9.81,-0.03,-0.00,-0.00,0.47,-0.01,9.82,-0.03,0.00,-0.00,0.77,-0.19,9.78,-0.03,-0.00,0.01,2.53,-0.25,9.47,3938.4304,10552.3740,0.32
663252606,-0.03,-0.00,-0.00,0.43,-0.02,9.78,-0.03,-0.00,-0.00,0.67,0.24,9.77,-0.03,-0.00,0.00,0.48,-0.02,9.72,-0.02,0.00,0.00,0.77,-0.18,9.66,-0.02,-0.00,0.01,2.53,-0.24,9.49,3938.4304,10552.3740,0.32
663257611,-0.03,-0.00,-0.00,0.41,0.02,9.92,-0.03,-0.00,0.00,0.65,0.26,9.90,-0.03,0.00,-0.00,0.50,0.01,9.94,-0.02,0.00,0.00,0.80,-0.10,9.94,-0.02,-0.00,0.00,2.56,-0.17,9.56,3938.4304,10552.3740,0.32
663262611,-0.03,-0.00,-0.00,0.44,0.01,9.85,-0.03,-0.01,0.00,0.62,0.29,9.84,-0.04,-0.00,-0.00,0.49,0.00,9.86,-0.04,0.00,0.00,0.78,-0.10,9.89,-0.03,0.00,0.01,2.57,-0.25,9.63,3938.4304,10552.3740,0.32
663267568,-0.03,-0.00,-0.00,0.41,-0.03,9.81,-0.03,-0.00,0.00,0.63,0.21,9.78,-0.04,-0.00,-0.00,0.48,-0.02,9.77,-0.04,-0.00,0.00,0.77,-0.18,9.88,-0.03,-0.01,0.01,2.56,-0.24,9.62,3938.4304,10552.3740,0.32
663272537,-0.03,-0.00,-0.00,0.44,-0.02,9.87,-0.03,-0.01,0.00,0.62,0.25,9.86,-0.03,-0.00,0.00,0.49,0.02,9.88,-0.04,-0.00,0.00,0.77,-0.15,9.95,-0.03,-0.01,0.01,2.54,-0.25,9.56,3938.4304,10552.3740,0.32
663277496,-0.03,-0.00,0.00,0.39,-0.03,9.83,-0.04,-0.01,0.01,0.67,0.24,9.80,-0.04,-0.00,-0.00,0.46,-0.04,9.78,-0.04,-0.00,0.00,0.79,-0.16,9.84,-0.04,-0.01,0.01,2.56,-0.23,9.46,3938.4304,10552.3740,0.32
663283574,-0.03,-0.00,0.00,0.42,-0.03,9.79,-0.04,-0.00,0.00,0.61,0.13,9.71,-0.03,-0.00,-0.00,0.46,-0.04,9.74,-0.03,-0.00,-0.00,0.75,-0.19,9.76,-0.03,-0.00,0.01,2.53,-0.24,9.48,3938.4304,10552.3740,0.32
663288640,-0.03,-0.00,0.00,0.45,0.02,9.85,-0.03,-0.00,0.00,0.65,0.21,9.84,-0.03,-0.00,-0.00,0.46,0.02,9.87,-0.03,0.00,-0.00,0.76,-0.12,9.88,-0.02,-0.00,0.00,2.52,-0.19,9.43,3938.4304,10552.3740,0.32
663293386,-0.03,-0.00,0.00,0.45,-0.03,9.88,-0.04,-0.01,-0.00,0.65,0.16,9.96,-0.03,-0.00,-0.00,0.48,-0.06,9.85,-0.03,0.00,0.00,0.79,-0.20,9.93,-0.03,0.00,0.01,2.55,-0.16,9.60,3938.4304,10552.3740,0.32
663297915,-0.04,-0.00,-0.01,0.42,-0.01,9.91,-0.04,-0.00,0.00,0.67,0.21,9.84,-0.03,-0.00,0.00,0.51,-0.04,9.86,-0.03,0.00,0.00,0.80,-0.16,9.88,-0.03,-0.00,0.01,2.56,-0.21,9.67,3938.4304,10552.3740,0.32
663302799,-0.03,-0.00,0.00,0.40,0.04,9.87,-0.04,-0.01,0.00,0.61,0.23,9.81,-0.04,-0.00,-0.00,0.43,0.02,9.91,-0.04,-0.00,-0.00,0.74,-0.15,9.94,-0.04,-0.01,0.01,2.55,-0.20,9.72,3938.4304,10552.3740,0.32
663308616,-0.04,-0.00,-0.00,0.44,0.04,9.89,-0.04,-0.01,0.00,0.63,0.26,9.91,-0.04,-0.00,-0.00,0.47,-0.01,9.97,-0.04,-0.00,0.00,0.77,-0.16,9.91,-0.04,-0.01,0.01,2.56,-0.21,9.61,3938.4304,10552.3740,0.32
663313276,-0.05,-0.00,-0.00,0.45,0.03,9.80,-0.05,-0.01,0.00,0.64,0.24,9.87,-0.05,-0.00,-0.00,0.45,-0.01,9.90,-0.05,-0.00,0.00,0.80,-0.20,9.84,-0.05,-0.01,0.01,2.56,-0.22,9.54,3938.4304,10552.3740,0.32
663317921,-0.04,-0.00,-0.00,0.41,-0.11,9.80,-0.05,-0.01,0.00,0.64,0.14,9.72,-0.05,-0.00,-0.00,0.46,-0.09,9.69,-0.05,-0.00,-0.00,0.78,-0.17,9.84,-0.04,-0.01,0.01,2.56,-0.26,9.43,3938.4304,10552.3740,0.32
663322950,-0.04,-0.00,0.00,0.47,-0.03,9.74,-0.05,-0.00,0.00,0.64,0.20,9.84,-0.05,0.00,-0.00,0.47,-0.07,10.07,-0.04,-0.00,0.00,0.88,-0.19,9.75,-0.04,-0.01,0.01,2.56,-0.26,9.36,3938.4304,10552.3740,0.32
663327994,-0.05,-0.00,0.00,0.38,-0.03,9.78,-0.05,-0.00,-0.00,0.61,0.32,10.00,-0.05,-0.00,-0.00,0.45,0.05,10.03,-0.05,0.01,0.00,0.77,-0.06,10.03,-0.04,-0.00,0.01,2.53,-0.10,9.52,3938.4304,10552.3740,0.32
663333039,-0.06,-0.01,0.00,0.44,-0.02,10.09,-0.06,-0.01,-0.00,0.70,0.17,9.83,-0.06,0.00,-0.00,0.45,-0.07,9.62,-0.06,0.01,0.00,0.77,-0.21,10.42,-0.06,0.00,0.01,2.58,-0.29,9.19,3938.4304,10552.3740,0.32
663338104,-0.06,-0.01,0.00,0.44,-0.02,9.71,-0.06,-0.01,0.00,0.66,0.16,9.78,-0.06,-0.00,0.00,0.49,-0.09,9.70,-0.06,0.00,0.00,0.79,-0.17,10.09,-0.06,-0.01,0.01,2.53,-0.19,9.51,3938.4304,10552.3740,0.32
663343056,-0.06,-0.00,-0.00,0.43,-0.04,9.96,-0.06,-0.01,0.00,0.66,0.21,9.97,-0.06,-0.01,-0.00,0.55,-0.02,9.84,-0.06,-0.00,0.00,0.79,-0.12,9.79,-0.05,-0.01,0.01,2.55,-0.24,9.82,3938.4304,10552.3740,0.32
663348002,-0.06,-0.01,0.00,0.46,-0.04,10.12,-0.07,-0.01,0.00,0.70,0.20,10.00,-0.07,-0.01,-0.00,0.54,-0.09,9.82,-0.07,-0.00,0.00,0.84,-0.20,10.04,-0.07,-0.01,0.01,2.64,-0.24,9.52,3938.4304,10552.3740,0.32
663352891,-0.06,-0.01,-0.00,0.42,-0.01,9.75,-0.07,-0.01,-0.00,0.63,0.21,9.80,-0.07,-0.01,-0.00,0.53,-0.10,9.59,-0.07,-0.00,0.00,0.75,-0.17,9.74,-0.07,-0.01,0.02,2.52,-0.30,9.45,3938.4304,10552.3740,0.32
663357821,-0.05,-0.00,-0.00,0.42,-0.04,9.78,-0.05,-0.01,0.00,0.63,0.14,9.65,-0.05,-0.01,-0.00,0.52,-0.14,9.58,-0.05,-0.00,0.00,0.79,-0.28,9.57,-0.05,-0.01,0.01,2.52,-0.42,9.32,3938.4304,10552.3740,0.32
663362818,-0.05,-0.00,-0.00,0.45,-0.08,9.73,-0.05,-0.01,0.00,0.65,0.13,9.65,-0.05,0.00,-0.00,0.46,-0.09,9.82,-0.04,-0.00,-0.00,0.82,-0.19,9.93,-0.04,-0.00,0.01,2.52,-0.27,9.07,3938.4304,10552.3740,0.32
663367836,-0.04,-0.00,0.00,0.42,-0.03,9.88,-0.05,-0.00,0.00,0.64,0.23,9.84,-0.05,-0.00,-0.00,0.48,-0.03,9.75,-0.04,0.01,0.00,0.75,-0.18,9.88,-0.04,0.00,0.01,2.56,-0.24,9.41,3938.4304,10552.3740,0.32
663372889,-0.04,-0.00,0.00,0.44,-0.04,9.76,-0.04,-0.01,0.00,0.58,0.13,9.83,-0.04,-0.00,0.00,0.48,-0.09,9.81,-0.03,0.00,-0.00,0.77,-0.24,9.79,-0.03,0.00,0.01,2.55,-0.29,9.70,3938.4304,10552.3740,0.32
663377958,-0.03,-0.00,-0.00,0.45,-0.05,9.72,-0.04,-0.00,0.00,0.64,0.17,9.80,-0.03,-0.00,-0.00,0.48,-0.03,9.82,-0.03,-0.00,0.00,0.80,-0.19,9.87,-0.03,-0.01,0.01,2.61,-0.24,9.74,3938.4304,10552.3740,0.32
663382918,-0.03,-0.00,-0.00,0.43,-0.05,9.78,-0.03,-0.00,-0.00,0.62,0.21,9.74,-0.03,-0.00,-0.00,0.48,-0.09,9.76,-0.03,-0.00,0.00,0.82,-0.22,9.89,-0.03,-0.01,0.01,2.56,-0.26,9.47,3938.4304,10552.3740,0.32
663387818,-0.03,-0.00,-0.00,0.44,-0.06,9.76,-0.03,-0.00,-0.00,0.66,0.17,9.78,-0.03,-0.00,-0.00,0.51,-0.08,9.79,-0.03,-0.00,-0.00,0.80,-0.23,9.77,-0.02,-0.01,0.00,2.52,-0.31,9.36,3938.4304,10552.3740,0.32
663392778,-0.02,-0.00,0.00,0.47,-0.02,9.79,-0.02,-0.01,0.00,0.60,0.17,9.77,-0.02,0.00,-0.00,0.47,-0.06,9.82,-0.02,0.00,-0.00,0.82,-0.21,9.75,-0.02,-0.01,0.00,2.52,-0.33,9.17,3938.4304,10552.3740,0.32
663397502,-0.01,-0.00,-0.00,0.43,-0.07,9.84,-0.02,-0.00,-0.00,0.62,0.16,9.80,-0.01,0.00,-0.00,0.50,-0.10,9.81,-0.01,0.00,0.00,0.81,-0.23,9.70,-0.01,0.00,0.00,2.51,-0.29,9.24,3938.4304,10552.3740,0.32
663402215,-0.01,-0.00,-0.00,0.47,-0.04,9.85,-0.02,-0.00,-0.00,0.65,0.15,9.86,-0.01,0.00,0.00,0.50,-0.09,9.88,-0.01,0.01,0.00,0.79,-0.17,9.73,-0.01,0.01,0.00,2.53,-0.26,9.47,3938.4304,10552.3740,0.32
663412279,-0.02,-0.00,0.00,0.44,-0.06,9.85,-0.02,-0.00,0.00,0.67,0.21,9.88,-0.02,-0.00,-0.00,0.48,0.00,9.97,-0.02,0.00,0.00,0.73,-0.18,9.95,-0.01,-0.00,0.00,2.55,-0.26,9.84,3938.4304,10552.3740,0.32
663416946,-0.02,-0.00,0.00,0.46,-0.07,9.85,-0.02,-0.01,0.00,0.64,0.21,9.88,-0.02,-0.00,0.00,0.50,-0.06,9.92,-0.02,-0.00,-0.00,0.77,-0.15,10.05,-0.02,-0.01,0.00,2.63,-0.24,9.71,3938.4304,10552.3740,0.32
663421563,-0.03,-0.00,0.00,0.42,-0.07,9.86,-0.03,-0.00,0.00,0.67,0.20,9.86,-0.03,-0.00,0.00,0.46,-0.05,9.88,-0.03,-0.00,-0.00,0.80,-0.16,9.96,-0.03,-0.01,0.01,2.58,-0.30,9.56,3938.4304,10552.3740,0.34
663426172,-0.03,-0.00,0.00,0.44,-0.04,9.88,-0.03,-0.01,0.00,0.65,0.17,9.84,-0.03,-0.00,-0.00,0.48,-0.08,9.82,-0.03,-0.00,-0.00,0.81,-0.22,9.78,-0.03,-0.01,0.01,2.52,-0.26,9.41,3938.4304,10552.3740,0.34
663431074,-0.03,-0.00,0.00,0.44,-0.07,9.85,-0.04,-0.00,0.00,0.63,0.16,9.83,-0.04,0.00,-0.00,0.51,-0.05,9.82,-0.03,0.00,0.00,0.81,-0.24,9.85,-0.03,-0.00,0.01,2.52,-0.24,9.39,3938.4304,10552.3740,0.34
663437332,-0.03,-0.00,0.00,0.43,-0.07,9.80,-0.04,-0.01,0.00,0.61,0.14,9.81,-0.03,-0.00,0.00,0.48,-0.09,9.83,-0.03,0.00,0.00,0.77,-0.23,9.88,-0.03,0.00,0.01,2.53,-0.32,9.53,3938.4304,10552.3740,0.34
663442354,-0.03,-0.00,0.00,0.43,-0.07,9.80,-0.03,-0.01,-0.00,0.67,0.15,9.77,-0.03,-0.00,-0.00,0.49,-0.08,9.79,-0.03,0.00,0.00,0.77,-0.22,9.91,-0.03,-0.00,0.01,2.54,-0.27,9.65,3938.4304,10552.3740,0.34
663447408,-0.03,-0.00,-0.00,0.44,-0.08,9.84,-0.03,-0.01,0.00,0.62,0.14,9.76,-0.03,0.00,-0.00,0.47,-0.10,9.76,-0.03,-0.00,0.00,0.79,-0.23,9.83,-0.03,-0.00,0.00,2.57,-0.29,9.60,3938.4304,10552.3740,0.34
663452452,-0.02,-0.00,-0.00,0.44,-0.06,9.79,-0.03,-0.00,-0.00,0.62,0.15,9.75,-0.03,-0.00,-0.00,0.47,-0.07,9.80,-0.03,-0.00,0.00,0.79,-0.21,9.83,-0.03,-0.01,0.01,2.55,-0.26,9.52,3938.4304,10552.3740,0.34
663457434,-0.02,-0.00,0.00,0.42,-0.07,9.77,-0.02,-0.00,0.00,0.64,0.17,9.78,-0.02,-0.00,-0.00,0.46,-0.10,9.75,-0.02,-0.00,0.00,0.79,-0.22,9.74,-0.02,-0.01,0.00,2.52,-0.31,9.41,3938.4304,10552.3740,0.34
663462376,-0.02,-0.00,-0.00,0.42,-0.12,9.81,-0.02,-0.00,0.00,0.63,0.16,9.81,-0.02,0.00,-0.00,0.46,-0.09,9.79,-0.02,0.00,0.00,0.76,-0.26,9.81,-0.01,-0.00,0.00,2.55,-0.29,9.39,3938.4304,10552.3740,0.34
663467260,-0.01,-0.00,0.00,0.47,-0.04,9.83,-0.01,-0.00,0.00,0.60,0.16,9.79,-0.01,0.00,-0.00,0.48,-0.10,9.80,-0.01,0.00,-0.00,0.80,-0.23,9.81,-0.01,-0.00,0.00,2.51,-0.29,9.42,3938.4304,10552.3740,0.34
663472133,-0.01,-0.00,0.00,0.43,-0.05,9.85,-0.01,-0.00,0.00,0.61,0.18,9.83,-0.01,0.00,-0.00,0.51,-0.09,9.79,-0.01,0.00,0.00,0.77,-0.24,9.81,-0.01,0.00,0.00,2.53,-0.29,9.49,3938.4304,10552.3740,0.34
663477086,-0.01,-0.00,-0.01,0.45,-0.05,9.81,-0.01,-0.00,0.01,0.64,0.21,9.86,-0.01,0.00,0.00,0.49,-0.09,9.86,-0.01,0.00,-0.00,0.79,-0.21,9.91,-0.01,-0.00,0.00,2.55,-0.25,9.62,3938.4304,10552.3740,0.34
663482126,-0.02,-0.00,-0.00,0.47,-0.08,9.82,-0.02,-0.00,-0.00,0.66,0.15,9.85,-0.02,-0.00,-0.00,0.46,-0.05,9.88,-0.02,0.00,-0.00,0.75,-0.22,10.00,-0.01,-0.00,0.00,2.59,-0.26,9.72,3938.4304,10552.3740,0.34
663487199,-0.02,-0.00,0.00,0.43,-0.06,9.85,-0.02,-0.00,0.00,0.62,0.18,9.83,-0.02,-0.00,-0.00,0.49,-0.10,9.82,-0.02,-0.00,-0.00,0.82,-0.22,9.93,-0.02,-0.01,0.00,2.54,-0.29,9.70,3938.4304,10552.3740,0.34
663492280,-0.02,-0.00,0.00,0.43,-0.04,9.85,-0.02,-0.01,0.00,0.67,0.13,9.83,-0.02,-0.00,-0.00,0.50,-0.08,9.84,-0.02,-0.00,0.00,0.80,-0.24,9.89,-0.02,-0.01,0.00,2.60,-0.29,9.54,3938.4304,10552.3740,0.34
663497259,-0.02,-0.00,-0.00,0.45,-0.07,9.78,-0.02,-0.01,-0.00,0.67,0.13,9.80,-0.02,-0.00,-0.00,0.53,-0.11,9.79,-0.02,-0.00,0.00,0.79,-0.23,9.86,-0.02,-0.00,0.00,2.56,-0.33,9.35,3938.4304,10552.3740,0.34
663501923,-0.02,-0.00,0.00,0.42,-0.07,9.79,-0.02,-0.01,0.00,0.67,0.14,9.78,-0.01,-0.00,0.00,0.53,-0.09,9.76,-0.02,0.00,-0.00,0.79,-0.24,9.78,-0.01,0.00,0.00,2.56,-0.26,9.32,3938.4304,10552.3740,0.34
663506594,-0.01,-0.00,0.00,0.45,-0.10,9.83,-0.01,-0.00,0.00,0.67,0.15,9.80,-0.01,0.00,-0.00,0.51,-0.06,9.78,-0.01,0.00,0.00,0.80,-0.24,9.81,-0.00,-0.00,0.00,2.55,-0.33,9.42,3938.4304,10552.3740,0.34
663512525,-0.01,-0.00,-0.00,0.44,-0.08,9.79,-0.01,-0.01,0.00,0.64,0.15,9.82,-0.00,0.00,-0.00,0.49,-0.11,9.82,-0.00,0.00,-0.00,0.83,-0.24,9.90,-0.00,0.00,-0.00,2.54,-0.26,9.56,3938.4304,10552.3740,0.34
663517240,-0.01,0.00,0.00,0.43,-0.07,9.83,-0.00,-0.01,0.00,0.63,0.18,9.81,-0.01,-0.00,-0.00,0.47,-0.09,9.77,-0.01,0.00,0.00,0.77,-0.25,9.87,-0.00,0.00,-0.00,2.56,-0.32,9.65,3938.4304,10552.3740,0.34
663521962,-0.00,-0.00,-0.00,0.44,-0.08,9.83,-0.00,-0.01,0.00,0.67,0.14,9.78,-0.00,-0.00,0.00,0.48,-0.09,9.80,-0.00,0.00,-0.00,0.79,-0.25,9.86,-0.00,-0.01,0.00,2.57,-0.32,9.65,3938.4304,10552.3740,0.34
663526699,0.00,0.00,0.00,0.43,-0.07,9.81,-0.00,-0.00,0.00,0.64,0.15,9.81,-0.00,-0.00,-0.00,0.49,-0.09,9.80,-0.00,-0.00,0.00,0.74,-0.26,9.84,-0.00,-0.00,-0.00,2.55,-0.30,9.51,3938.4304,10552.3740,0.34
663534975,0.00,0.00,-0.00,0.43,-0.09,9.80,0.00,-0.00,0.00,0.65,0.15,9.76,0.00,0.00,-0.00,0.50,-0.14,9.79,0.01,0.00,0.00,0.80,-0.25,9.78,0.01,-0.00,-0.00,2.52,-0.34,9.38,3938.4304,10552.3740,0.34
663539988,0.01,0.00,0.00,0.43,-0.09,9.76,0.01,-0.00,0.00,0.62,0.13,9.73,0.01,0.00,-0.00,0.48,-0.06,9.72,0.01,0.00,-0.00,0.76,-0.22,9.74,0.01,0.00,-0.00,2.53,-0.29,9.39,3938.4304,10552.3740,0.34
663544893,0.02,0.00,0.00,0.43,-0.09,9.72,0.02,-0.00,0.00,0.66,0.08,9.66,0.02,0.00,-0.00,0.46,-0.15,9.68,0.02,0.00,-0.00,0.79,-0.28,9.72,0.02,0.00,-0.00,2.54,-0.33,9.41,3938.4304,10552.3740,0.34
663549805,0.03,-0.00,0.00,0.44,-0.09,9.74,0.03,-0.00,-0.00,0.61,0.12,9.66,0.03,0.00,0.00,0.53,-0.10,9.74,0.03,0.00,-0.00,0.80,-0.23,9.74,0.03,-0.00,-0.01,2.56,-0.32,9.43,3938.4304,10552.3740,0.34
663554793,0.05,-0.00,0.00,0.42,-0.10,9.74,0.04,-0.00,0.00,0.63,0.13,9.68,0.04,0.00,0.00,0.48,-0.10,9.70,0.04,0.00,-0.00,0.74,-0.26,9.77,0.04,0.00,-0.01,2.50,-0.29,9.41,3938.4304,10552.3740,0.34
