882713856,-0.08,0.00,0.01,0.02,-1.01,9.86,-0.08,-0.01,0.00,0.22,-0.76,9.71,-0.08,-0.01,0.00,0.10,-0.99,10.09,-0.08,-0.01,0.01,0.44,-1.08,9.96,-0.07,-0.01,0.01,2.28,-1.06,9.30,3938.4331,10552.3574,1.50
882724891,-0.04,-0.00,-0.00,-0.06,-1.20,9.45,-0.04,-0.01,0.00,0.17,-0.92,9.62,-0.04,-0.00,-0.00,0.08,-1.10,9.63,-0.04,-0.01,0.00,0.30,-1.24,9.68,-0.04,-0.03,0.01,2.08,-1.28,9.30,3938.4331,10552.3574,1.50
882728990,-0.01,-0.00,0.00,-0.05,-1.06,9.60,-0.02,-0.01,0.00,0.20,-0.79,9.81,-0.03,-0.00,0.00,0.08,-1.01,9.75,-0.03,-0.00,0.01,0.36,-1.19,9.57,-0.03,-0.02,0.01,2.07,-1.26,9.31,3938.4331,10552.3574,1.50
882733027,0.00,-0.00,0.00,-0.06,-1.08,9.62,-0.01,-0.00,0.00,0.17,-0.86,9.54,-0.01,0.00,0.00,0.05,-1.09,9.41,-0.01,-0.00,0.00,0.34,-1.24,9.37,-0.00,-0.00,0.00,1.98,-1.37,8.90,3938.4331,10552.3574,1.50
882737387,0.03,0.00,0.00,-0.07,-1.13,9.49,0.02,-0.00,-0.00,0.12,-0.84,9.48,0.02,0.00,0.00,0.01,-1.15,9.41,0.03,-0.00,-0.00,0.31,-1.26,9.36,0.03,-0.00,-0.01,1.96,-1.41,8.97,3938.4331,10552.3574,1.50
882741844,0.05,0.00,0.00,-0.06,-1.08,9.63,0.05,-0.00,0.00,0.13,-0.80,9.73,0.05,0.01,-0.00,0.01,-1.05,9.69,0.06,0.00,0.00,0.32,-1.17,9.56,0.06,0.01,-0.01,2.05,-1.31,9.16,3938.4331,10552.3574,1.50
882746293,0.05,0.00,0.00,-0.06,-1.03,9.84,0.05,0.00,0.00,0.17,-0.79,9.90,0.06,0.01,0.00,0.01,-0.99,9.82,0.07,0.01,-0.00,0.34,-1.12,9.94,0.07,0.01,-0.01,2.11,-1.18,9.49,3938.4331,10552.3574,1.50
882750764,0.05,0.00,0.00,-0.10,-0.96,9.85,0.05,-0.00,0.00,0.13,-0.73,9.96,0.05,0.01,-0.00,0.02,-1.01,10.01,0.06,0.01,0.00,0.31,-1.09,10.08,0.06,0.01,-0.01,2.11,-1.19,9.82,3938.4331,10552.3574,1.50
882755231,0.05,0.00,0.00,-0.06,-1.01,9.80,0.05,-0.00,0.00,0.17,-0.76,9.88,0.04,0.00,-0.00,0.05,-0.98,9.76,0.05,0.00,-0.00,0.35,-1.11,10.00,0.05,-0.00,-0.01,2.25,-1.11,10.28,3938.4331,10552.3574,1.50
882759585,0.04,0.00,0.01,-0.09,-0.96,9.95,0.04,-0.00,0.00,0.16,-0.75,10.04,0.04,0.00,-0.00,0.02,-0.98,10.01,0.04,0.00,-0.00,0.31,-1.04,10.18,0.04,-0.01,-0.01,2.18,-1.17,9.89,3938.4331,10552.3574,1.50
882763899,0.03,0.00,0.00,-0.01,-0.94,9.98,0.03,-0.00,-0.00,0.29,-0.72,10.12,0.02,0.00,0.00,0.17,-0.96,10.08,0.02,-0.00,-0.00,0.48,-1.09,10.04,0.02,-0.01,-0.01,2.25,-1.15,9.58,3938.4331,10552.3574,1.50
882768211,0.01,-0.00,0.00,0.14,-0.99,9.65,0.01,-0.00,0.00,0.41,-0.78,9.88,0.01,0.00,-0.00,0.34,-0.92,10.11,0.02,0.00,0.00,0.73,-1.05,9.99,0.02,-0.00,-0.00,2.41,-1.13,9.61,3938.4331,10552.3574,0.35
882772539,0.00,0.00,0.00,0.02,-0.99,9.91,-0.00,-0.00,0.00,0.31,-0.68,10.26,-0.00,0.00,-0.00,0.22,-0.96,10.04,0.01,0.01,0.00,0.43,-1.07,10.08,0.01,-0.00,-0.00,2.34,-1.08,10.16,3938.4331,10552.3574,0.35
882776972,-0.01,-0.00,0.00,0.17,-0.96,9.68,-0.01,-0.00,0.00,0.39,-0.73,9.89,-0.01,0.00,-0.00,0.27,-1.00,9.89,-0.01,0.00,-0.00,0.63,-1.08,10.14,-0.01,0.00,0.00,2.42,-1.16,9.98,3938.4331,10552.3574,0.35
882781435,0.01,-0.00,0.00,0.00,-0.53,10.12,0.01,-0.01,0.00,0.34,-0.53,9.45,-0.00,-0.00,0.00,0.18,-0.93,9.17,-0.01,-0.01,-0.00,0.42,-1.14,9.73,-0.01,-0.01,0.00,2.15,-1.39,9.61,3938.4331,10552.3574,0.35
882785910,0.00,-0.00,0.00,0.38,-1.00,9.85,0.00,-0.00,0.00,0.58,-0.75,9.72,0.00,0.00,-0.00,0.44,-0.89,10.28,0.00,-0.00,0.00,0.80,-1.06,9.96,0.00,-0.02,0.00,2.56,-1.13,8.97,3938.4331,10552.3574,0.35
882790351,-0.00,-0.00,0.00,0.17,-0.96,10.03,-0.01,-0.01,0.00,0.46,-0.77,10.03,-0.01,0.00,-0.00,0.27,-1.05,9.82,-0.01,0.00,0.00,0.58,-1.07,9.85,-0.00,0.01,0.00,2.32,-1.07,9.15,3938.4331,10552.3574,0.35
882794729,0.01,-0.00,-0.00,0.11,-1.06,9.42,0.00,-0.00,0.00,0.34,-0.85,9.47,0.00,0.00,-0.00,0.19,-1.13,9.42,0.00,0.00,-0.00,0.45,-1.22,9.43,0.01,0.00,-0.00,2.25,-1.30,9.81,3938.4331,10552.3574,0.35
882798856,0.04,-0.00,-0.00,-0.07,-1.11,9.42,0.03,-0.00,0.00,0.17,-0.87,9.58,0.03,0.00,-0.00,0.04,-1.07,9.47,0.03,-0.00,-0.00,0.32,-1.18,9.64,0.03,-0.02,-0.00,2.08,-1.29,9.55,3938.4331,10552.3574,0.35
882802920,0.07,-0.00,0.00,-0.15,-1.13,9.41,0.06,-0.01,0.00,0.11,-0.86,9.51,0.05,-0.00,0.00,-0.03,-1.04,9.40,0.05,-0.01,0.00,0.21,-1.14,9.42,0.04,-0.01,-0.01,1.95,-1.37,9.09,3938.4331,10552.3574,0.35
882807056,0.11,0.00,0.00,-0.23,-1.21,9.31,0.10,-0.00,0.00,0.02,-0.92,9.26,0.09,0.01,-0.00,-0.07,-1.19,9.04,0.09,-0.00,-0.01,0.19,-1.29,8.98,0.09,-0.00,-0.02,1.80,-1.46,8.58,3938.4331,10552.3574,0.35
882813714,0.18,0.00,0.01,-0.25,-1.18,9.30,0.18,0.00,0.00,-0.07,-0.89,9.31,0.18,0.02,-0.00,-0.14,-1.09,9.24,0.19,0.01,-0.00,0.12,-1.25,9.06,0.19,0.01,-0.04,1.79,-1.44,8.46,3938.4331,10552.3574,0.35
882817858,0.23,0.01,0.00,-0.29,-1.08,9.44,0.22,0.01,0.00,-0.01,-0.85,9.44,0.22,0.02,-0.00,-0.09,-1.08,9.35,0.23,0.02,-0.00,0.14,-1.26,9.13,0.24,0.03,-0.05,1.82,-1.39,9.01,3938.4331,10552.3574,0.35
882822018,0.23,0.01,0.01,-0.22,-0.93,10.06,0.23,0.01,-0.00,0.04,-0.67,10.15,0.24,0.03,-0.00,-0.09,-0.95,10.07,0.26,0.02,-0.01,0.23,-1.12,9.86,0.28,0.03,-0.06,1.96,-1.20,9.29,3938.4331,10552.3574,0.35
882826155,0.22,0.01,0.00,-0.27,-1.00,9.72,0.22,0.01,-0.00,-0.06,-0.68,10.07,0.22,0.03,0.00,-0.17,-0.92,10.36,0.23,0.02,-0.01,0.11,-0.88,10.78,0.24,0.04,-0.05,2.09,-0.81,10.40,3938.4331,10552.3574,0.35
882830473,0.20,0.01,-0.00,-0.19,-0.90,9.98,0.20,0.01,0.00,0.05,-0.63,10.12,0.19,0.02,0.00,-0.10,-0.92,10.09,0.20,0.02,-0.01,0.21,-1.03,10.18,0.19,0.02,-0.04,2.11,-1.06,10.83,3938.4331,10552.3574,0.35
882834821,0.19,0.01,0.00,-0.14,-0.75,10.28,0.18,0.00,-0.00,0.11,-0.55,10.33,0.18,0.01,-0.00,-0.03,-0.84,10.33,0.17,0.00,-0.01,0.28,-0.98,10.40,0.16,-0.01,-0.04,2.22,-0.97,10.57,3938.4331,10552.3574,0.35
882839154,0.14,0.00,0.00,-0.15,-0.84,10.27,0.13,0.00,-0.00,0.11,-0.57,10.30,0.13,0.01,-0.00,0.01,-0.89,10.33,0.12,0.00,-0.01,0.29,-1.01,10.51,0.12,0.00,-0.03,2.17,-0.93,9.82,3938.4331,10552.3574,0.35
882843601,0.12,0.00,0.00,-0.08,-0.82,10.13,0.11,0.00,-0.00,0.16,-0.67,9.90,0.10,0.01,0.00,0.04,-0.91,9.94,0.10,0.00,-0.00,0.32,-1.09,9.75,0.10,0.01,-0.02,2.06,-1.20,9.60,3938.4331,10552.3574,0.35
882848048,0.09,0.00,0.00,-0.06,-0.87,10.12,0.09,0.00,-0.00,0.20,-0.63,10.12,0.09,0.01,0.00,0.05,-0.91,10.10,0.10,0.01,-0.00,0.36,-1.01,10.27,0.10,0.00,-0.02,2.22,-0.94,9.67,3938.4331,10552.3574,0.35
882852490,0.07,0.00,0.00,-0.05,-0.87,10.02,0.06,0.00,-0.00,0.21,-0.60,10.02,0.06,0.01,-0.00,0.06,-0.85,10.08,0.07,0.01,-0.00,0.37,-0.98,10.30,0.08,0.02,-0.02,2.23,-0.99,9.87,3938.4331,10552.3574,0.35
882856954,0.06,0.00,0.00,-0.05,-0.92,9.93,0.05,-0.00,0.00,0.25,-0.66,10.01,0.06,0.01,-0.00,0.10,-0.92,9.85,0.06,0.01,-0.00,0.40,-1.04,9.98,0.06,-0.00,-0.01,2.24,-1.10,10.13,3938.4331,10552.3574,0.35
882861328,0.05,0.00,0.00,-0.02,-0.95,9.96,0.05,-0.00,0.00,0.20,-0.64,10.06,0.05,0.00,-0.00,0.14,-0.85,10.09,0.04,0.00,-0.00,0.40,-0.98,10.18,0.04,-0.01,-0.01,2.30,-1.03,9.87,3938.4331,10552.3574,0.35
882865617,0.04,0.00,0.00,-0.05,-0.94,9.84,0.04,-0.00,0.00,0.23,-0.68,9.95,0.03,0.00,-0.00,0.10,-0.89,9.89,0.03,0.00,-0.00,0.37,-1.01,9.88,0.03,-0.00,-0.01,2.15,-1.12,9.59,3938.4331,10552.3574,0.35
882869921,0.05,0.00,0.00,-0.01,-0.96,9.70,0.05,0.00,-0.00,0.24,-0.72,9.74,0.04,0.00,-0.00,0.09,-0.99,9.62,0.04,0.00,-0.00,0.38,-1.06,9.62,0.04,-0.01,-0.01,2.11,-1.21,9.29,3938.4331,10552.3574,0.35
882874275,0.06,0.00,0.01,-0.06,-0.91,9.73,0.05,0.00,-0.00,0.17,-0.70,9.83,0.06,0.01,-0.00,0.09,-0.92,9.78,0.06,0.00,-0.00,0.39,-1.07,9.73,0.06,0.00,-0.01,2.14,-1.14,9.24,3938.4331,10552.3574,0.35
882878707,0.07,0.00,0.00,-0.02,-0.93,9.74,0.06,0.00,-0.00,0.21,-0.65,9.84,0.06,0.01,-0.00,0.10,-0.97,9.71,0.07,0.01,-0.00,0.38,-1.09,9.71,0.07,0.01,-0.02,2.12,-1.16,9.38,3938.4331,10552.3574,0.35
882883190,0.08,0.00,-0.00,-0.01,-0.93,9.80,0.07,0.00,-0.00,0.22,-0.66,9.83,0.07,0.01,-0.00,0.10,-0.92,9.74,0.08,0.01,-0.00,0.40,-1.03,9.78,0.08,0.01,-0.02,2.21,-1.10,9.65,3938.4331,10552.3574,0.35
882887657,0.08,0.00,0.01,0.02,-0.89,9.85,0.07,0.00,-0.00,0.24,-0.62,9.88,0.08,0.01,-0.00,0.14,-0.81,9.93,0.08,0.01,-0.00,0.44,-0.97,9.96,0.08,0.00,-0.02,2.24,-1.01,9.89,3938.4331,10552.3574,0.35
882891814,0.07,0.00,0.00,0.00,-0.90,9.85,0.07,-0.00,0.00,0.23,-0.59,9.99,0.07,0.01,-0.00,0.09,-0.85,9.91,0.07,0.01,-0.00,0.39,-0.99,9.95,0.07,0.00,-0.02,2.21,-1.02,9.84,3938.4331,10552.3574,0.35
882895969,0.07,0.00,0.00,-0.02,-0.93,9.87,0.06,-0.00,0.00,0.20,-0.61,9.98,0.06,0.01,-0.00,0.08,-0.87,9.89,0.06,0.00,0.00,0.39,-1.01,9.99,0.06,0.00,-0.01,2.21,-1.05,9.74,3938.4331,10552.3574,0.35
882900082,0.06,0.00,0.00,-0.05,-0.89,9.75,0.06,-0.00,0.00,0.19,-0.60,9.91,0.06,0.00,-0.00,0.09,-0.90,9.96,0.06,0.00,-0.00,0.38,-1.05,9.86,0.06,0.00,-0.01,2.16,-1.04,9.65,3938.4331,10552.3574,0.35
882905265,0.07,0.00,0.01,-0.02,-0.84,10.06,0.06,0.00,-0.00,0.22,-0.57,10.06,0.06,0.01,-0.00,0.11,-0.85,9.93,0.06,0.01,-0.00,0.37,-0.98,9.87,0.06,-0.00,-0.01,2.11,-1.10,9.39,3938.4331,10552.3574,0.35
882909346,0.05,0.00,-0.00,-0.06,-0.91,9.91,0.05,0.00,0.00,0.17,-0.61,10.03,0.05,0.01,-0.00,0.09,-0.89,9.99,0.05,0.01,-0.00,0.35,-1.00,10.16,0.06,0.01,-0.01,2.22,-0.98,9.72,3938.4331,10552.3574,0.35
882913506,0.04,0.00,0.00,-0.04,-0.90,9.94,0.03,-0.00,-0.00,0.19,-0.65,9.98,0.03,0.01,-0.00,0.07,-0.91,9.95,0.04,0.01,-0.00,0.38,-0.98,9.99,0.05,0.01,-0.01,2.18,-1.06,9.91,3938.4331,10552.3574,0.35
882917982,0.02,0.00,0.00,-0.06,-0.92,9.99,0.02,-0.00,0.00,0.14,-0.62,10.11,0.03,0.01,-0.00,0.04,-0.81,10.13,0.03,0.00,-0.00,0.33,-0.93,10.22,0.03,-0.00,-0.01,2.14,-1.00,10.07,3938.4331,10552.3574,0.35
882922461,0.01,0.00,-0.00,-0.05,-0.93,9.93,0.01,-0.00,0.00,0.17,-0.58,9.94,0.01,0.00,-0.00,0.05,-0.83,10.00,0.00,-0.00,0.00,0.37,-0.93,10.13,0.00,-0.00,-0.00,2.21,-1.00,10.04,3938.4331,10552.3574,0.35
882926913,0.00,0.00,0.00,-0.07,-0.87,9.90,-0.00,-0.00,0.00,0.18,-0.61,9.95,-0.00,0.00,-0.00,0.08,-0.87,9.84,-0.00,-0.00,-0.00,0.34,-1.00,9.83,-0.01,-0.01,-0.00,2.14,-1.10,9.60,3938.4331,10552.3574,0.35
882931303,0.00,-0.00,0.00,-0.07,-0.89,9.94,0.00,-0.00,0.00,0.22,-0.60,9.97,-0.00,0.00,-0.00,0.04,-0.88,9.86,-0.00,0.00,-0.00,0.35,-1.01,9.89,-0.00,-0.01,0.00,2.11,-1.06,9.40,3938.4331,10552.3574,0.35
882935644,-0.00,-0.00,-0.00,-0.06,-0.91,9.80,-0.00,-0.00,0.00,0.18,-0.67,9.84,-0.00,0.00,0.00,0.06,-0.91,9.75,0.00,0.01,-0.00,0.34,-1.02,9.71,0.01,0.00,-0.00,2.10,-1.14,9.41,3938.4331,10552.3574,0.35
882939977,0.00,-0.00,0.00,-0.05,-0.90,9.83,0.00,-0.00,0.00,0.18,-0.64,9.85,0.00,0.00,-0.00,0.08,-0.88,9.86,0.01,0.00,-0.00,0.32,-0.98,9.87,0.02,0.00,-0.00,2.15,-1.06,9.61,3938.4331,10552.3574,0.35
882944320,0.00,0.00,0.00,-0.06,-0.89,9.79,-0.00,-0.00,-0.00,0.17,-0.62,9.90,0.00,0.00,-0.00,0.06,-0.90,9.99,0.00,0.00,-0.00,0.37,-0.98,10.03,0.01,0.00,-0.00,2.17,-1.04,9.71,3938.4331,10552.3574,0.35
882949998,0.00,0.00,0.00,-0.06,-0.88,9.86,0.00,-0.00,0.00,0.18,-0.64,9.95,0.00,0.00,-0.00,0.06,-0.87,9.89,0.00,0.00,-0.00,0.38,-1.01,9.86,0.00,-0.01,-0.00,2.15,-1.06,9.71,3938.4331,10552.3574,0.35
882954432,0.01,0.00,0.00,-0.02,-0.85,9.85,0.00,-0.00,0.00,0.19,-0.62,9.93,-0.00,0.00,0.00,0.11,-0.89,9.89,-0.00,-0.00,0.00,0.37,-0.96,9.90,-0.00,-0.01,0.00,2.20,-1.10,9.54,3938.4331,10552.3574,0.35
882958871,0.01,0.00,0.00,-0.04,-0.89,9.84,0.00,-0.00,0.00,0.21,-0.64,9.81,-0.00,0.00,-0.00,0.11,-0.89,9.72,0.00,0.00,-0.00,0.39,-1.05,9.78,0.01,-0.00,-0.00,2.15,-1.10,9.51,3938.4331,10552.3574,0.35
882963320,0.01,0.00,-0.00,-0.03,-0.89,9.77,0.01,-0.00,0.00,0.21,-0.62,9.86,0.01,0.00,-0.00,0.16,-0.92,9.82,0.01,0.00,-0.00,0.40,-1.03,9.86,0.01,0.00,-0.00,2.18,-1.12,9.44,3938.4331,10552.3574,0.35
882967723,0.01,0.00,0.00,0.06,-0.86,9.84,0.01,-0.00,0.00,0.22,-0.66,9.87,0.01,0.00,-0.00,0.12,-0.86,9.79,0.02,0.00,-0.00,0.44,-1.02,9.83,0.02,0.00,-0.01,2.17,-1.07,9.57,3938.4331,10552.3574,0.35
882972056,0.01,0.00,0.00,0.03,-0.92,9.83,0.01,-0.00,-0.00,0.24,-0.64,9.83,0.01,0.00,-0.00,0.10,-0.88,9.84,0.02,0.00,0.00,0.42,-1.01,9.86,0.02,0.00,-0.00,2.21,-1.06,9.70,3938.4331,10552.3574,0.35
882976398,0.01,-0.00,0.00,0.02,-0.87,9.80,0.01,-0.00,0.00,0.24,-0.65,9.86,0.01,0.01,-0.00,0.15,-0.83,9.87,0.01,0.00,0.00,0.43,-0.97,9.92,0.02,-0.00,-0.01,2.22,-1.07,9.66,3938.4331,10552.3574,0.35
882980787,0.02,0.00,0.00,0.05,-0.89,9.77,0.01,-0.00,0.00,0.20,-0.61,9.84,0.01,0.00,0.00,0.14,-0.91,9.75,0.01,0.00,0.00,0.39,-1.02,9.83,0.01,-0.00,-0.00,2.21,-1.08,9.60,3938.4331,10552.3574,0.35
882984950,0.02,0.00,0.00,0.01,-0.88,9.79,0.02,-0.00,-0.00,0.26,-0.66,9.83,0.01,0.00,-0.00,0.13,-0.90,9.75,0.02,0.00,-0.00,0.41,-1.00,9.77,0.02,-0.00,-0.01,2.17,-1.12,9.49,3938.4331,10552.3574,0.35
882989120,0.03,0.00,0.00,0.01,-0.87,9.81,0.02,-0.00,-0.00,0.24,-0.61,9.85,0.02,0.00,-0.00,0.12,-0.88,9.77,0.02,0.00,0.00,0.44,-1.03,9.73,0.02,-0.00,-0.00,2.16,-1.05,9.48,3938.4331,10552.3574,0.35
882994381,0.03,0.00,0.00,0.02,-0.86,9.77,0.03,-0.00,-0.00,0.24,-0.65,9.86,0.03,0.00,0.00,0.10,-0.92,9.78,0.03,0.00,-0.00,0.40,-0.96,9.80,0.03,0.00,-0.01,2.18,-1.13,9.48,3938.4331,10552.3574,0.35
882998458,0.04,0.00,0.00,0.00,-0.91,9.75,0.03,-0.00,0.00,0.25,-0.62,9.87,0.04,0.00,-0.00,0.15,-0.88,9.79,0.04,0.00,-0.00,0.40,-1.01,9.80,0.04,0.00,-0.01,2.18,-1.14,9.54,3938.4331,10552.3574,0.35
883002468,0.04,0.00,0.00,0.00,-0.86,9.76,0.04,-0.00,0.00,0.25,-0.63,9.82,0.04,0.01,-0.00,0.10,-0.84,9.79,0.04,0.00,-0.00,0.41,-0.96,9.89,0.04,0.00,-0.01,2.18,-1.05,9.66,3938.4331,10552.3574,0.35
883006498,0.04,0.00,-0.00,0.01,-0.86,9.84,0.04,0.00,-0.00,0.24,-0.63,9.88,0.04,0.01,-0.00,0.14,-0.85,9.88,0.04,0.00,-0.00,0.43,-1.02,9.94,0.04,0.00,-0.01,2.22,-1.05,9.58,3938.4331,10552.3574,0.35
883010818,0.05,0.00,0.00,-0.01,-0.85,9.84,0.04,0.00,-0.00,0.25,-0.61,9.84,0.04,0.01,-0.00,0.16,-0.87,9.84,0.04,0.01,-0.00,0.38,-0.97,9.87,0.04,0.00,-0.01,2.19,-1.06,9.64,3938.4331,10552.3574,0.35
883015222,0.05,0.00,0.00,-0.01,-0.85,9.79,0.04,0.00,-0.00,0.25,-0.61,9.87,0.04,0.01,0.00,0.13,-0.87,9.84,0.05,0.00,-0.00,0.41,-0.97,9.85,0.05,-0.00,-0.01,2.24,-1.08,9.62,3938.4331,10552.3574,0.35
883019666,0.05,0.00,0.00,-0.01,-0.87,9.80,0.05,0.00,0.00,0.22,-0.53,9.93,0.04,0.01,0.00,0.15,-0.80,9.87,0.05,0.01,-0.01,0.41,-0.97,9.89,0.05,0.00,-0.01,2.19,-1.08,9.58,3938.4331,10552.3574,0.35
883024110,0.05,0.00,0.00,0.02,-0.88,9.80,0.05,-0.00,0.00,0.24,-0.57,9.84,0.04,0.01,0.00,0.13,-0.88,9.80,0.05,0.00,-0.01,0.43,-0.99,9.83,0.05,0.00,-0.01,2.20,-1.08,9.61,3938.4331,10552.3574,0.35
883028559,0.06,0.00,-0.00,0.02,-0.87,9.78,0.05,-0.00,0.00,0.23,-0.60,9.89,0.05,0.01,-0.00,0.14,-0.91,9.82,0.05,0.00,0.00,0.37,-1.04,9.86,0.05,0.00,-0.01,2.23,-1.09,9.59,3938.4331,10552.3574,0.35
883032956,0.06,0.00,-0.00,0.01,-0.87,9.79,0.05,-0.00,0.00,0.26,-0.63,9.88,0.05,0.01,0.00,0.11,-0.88,9.81,0.05,0.00,0.00,0.41,-1.00,9.83,0.05,0.00,-0.01,2.22,-1.09,9.45,3938.4331,10552.3574,0.35
883037269,0.06,0.00,-0.00,-0.01,-0.84,9.76,0.06,0.00,-0.00,0.23,-0.64,9.84,0.05,0.01,0.00,0.10,-0.86,9.82,0.06,0.00,-0.00,0.44,-0.99,9.78,0.06,0.00,-0.01,2.17,-1.04,9.54,3938.4331,10552.3574,0.35
883041575,0.07,0.00,-0.00,0.03,-0.82,9.80,0.06,0.00,0.00,0.28,-0.58,9.87,0.06,0.01,-0.00,0.13,-0.84,9.80,0.06,0.00,0.00,0.38,-0.99,9.74,0.06,0.01,-0.02,2.22,-1.07,9.60,3938.4331,10552.3574,0.35
883045909,0.07,-0.00,0.00,-0.01,-0.87,9.76,0.06,0.00,-0.00,0.24,-0.64,9.67,0.06,0.01,0.00,0.11,-0.94,9.80,0.07,0.00,-0.00,0.42,-1.00,9.87,0.07,0.00,-0.01,2.21,-1.05,9.39,3938.4331,10552.3574,0.35
883050301,0.08,-0.00,-0.01,-0.03,-0.84,9.82,0.07,0.00,-0.00,0.29,-0.61,9.89,0.07,0.01,0.00,0.12,-0.88,9.73,0.07,0.00,-0.00,0.45,-1.01,9.78,0.07,0.00,-0.01,2.20,-1.09,9.56,3938.4331,10552.3574,0.35
883054766,0.08,0.00,-0.01,0.04,-0.93,9.87,0.07,0.00,-0.00,0.30,-0.65,9.84,0.07,0.01,-0.01,0.15,-0.88,9.89,0.07,0.01,-0.00,0.44,-1.01,9.83,0.08,0.01,-0.02,2.24,-1.03,9.57,3938.4331,10552.3574,0.35
883059218,0.08,0.00,0.01,-0.01,-0.83,9.88,0.07,0.00,-0.00,0.28,-0.59,9.89,0.07,0.01,-0.00,0.12,-0.86,9.81,0.07,0.01,-0.00,0.43,-1.01,9.88,0.07,0.01,-0.02,2.23,-1.04,9.66,3938.4331,10552.3574,0.35
883063688,0.08,0.00,0.00,-0.01,-0.80,9.93,0.07,-0.00,0.00,0.21,-0.54,10.03,0.07,0.01,-0.00,0.11,-0.76,9.94,0.07,0.00,-0.00,0.40,-0.90,10.04,0.07,0.00,-0.02,2.25,-0.98,9.70,3938.4331,10552.3574,0.35
883068099,0.07,0.00,0.01,0.04,-0.81,9.90,0.06,0.00,-0.00,0.26,-0.55,10.05,0.06,0.01,0.00,0.19,-0.81,9.98,0.06,0.00,-0.00,0.44,-0.92,9.92,0.06,0.01,-0.02,2.20,-0.94,9.75,3938.4331,10552.3574,0.35
883072200,0.06,0.00,-0.00,0.03,-0.83,9.85,0.05,0.00,-0.00,0.25,-0.55,9.90,0.05,0.01,-0.00,0.14,-0.78,9.98,0.05,0.00,-0.00,0.39,-0.95,10.01,0.05,0.00,-0.01,2.26,-1.01,9.74,3938.4331,10552.3574,0.35
883076302,0.06,0.00,0.00,0.03,-0.80,9.90,0.05,0.00,0.00,0.25,-0.51,9.96,0.05,0.01,0.00,0.14,-0.81,9.92,0.05,0.00,-0.00,0.39,-0.92,9.93,0.05,-0.00,-0.01,2.23,-0.99,9.61,3938.4331,10552.3574,0.35
883080359,0.05,0.00,0.00,0.00,-0.80,9.89,0.04,0.00,0.00,0.26,-0.54,9.93,0.04,0.01,-0.00,0.12,-0.81,9.92,0.04,0.00,-0.01,0.40,-0.91,9.94,0.04,0.00,-0.01,2.20,-1.01,9.61,3938.4331,10552.3574,0.35
883090463,0.04,0.00,0.00,-0.01,-0.83,9.87,0.03,-0.00,0.00,0.22,-0.56,9.93,0.04,0.01,-0.00,0.12,-0.82,9.94,0.04,0.00,-0.00,0.44,-0.92,9.97,0.04,0.00,-0.01,2.25,-0.99,9.70,3938.4331,10552.3574,0.35
883094583,0.04,0.00,0.00,0.00,-0.83,9.81,0.03,-0.00,0.00,0.22,-0.57,9.92,0.03,0.01,-0.00,0.16,-0.80,9.86,0.03,0.00,-0.00,0.40,-0.96,10.00,0.03,0.00,-0.01,2.23,-0.99,9.68,3938.4331,10552.3574,0.35
883098715,0.04,0.00,-0.00,0.01,-0.80,9.85,0.03,-0.00,-0.00,0.24,-0.57,9.87,0.03,0.00,-0.00,0.16,-0.82,9.88,0.03,0.00,-0.00,0.44,-0.96,9.94,0.03,-0.00,-0.01,2.22,-0.99,9.65,3938.4331,10552.3574,0.35
883102743,0.03,0.00,0.00,0.02,-0.82,9.87,0.03,-0.00,0.00,0.25,-0.56,9.92,0.03,0.01,-0.00,0.14,-0.82,9.86,0.03,0.00,-0.00,0.43,-0.97,9.90,0.03,-0.00,-0.01,2.17,-1.00,9.56,3938.4331,10552.3574,0.35
883107037,0.04,0.00,0.00,0.00,-0.84,9.78,0.03,0.00,-0.00,0.28,-0.64,9.87,0.03,0.00,-0.00,0.12,-0.83,9.84,0.03,0.00,0.00,0.42,-0.97,9.81,0.03,-0.00,-0.01,2.20,-1.02,9.59,3938.4331,10552.3574,0.35
883111377,0.04,0.00,0.00,0.02,-0.81,9.76,0.04,-0.00,-0.00,0.27,-0.56,9.86,0.04,0.01,-0.00,0.13,-0.83,9.82,0.04,0.00,-0.00,0.45,-0.93,9.73,0.04,-0.00,-0.01,2.20,-1.03,9.37,3938.4331,10552.3574,0.35
883115724,0.04,0.00,0.01,0.04,-0.82,9.76,0.04,0.00,-0.01,0.24,-0.56,9.83,0.04,0.01,0.00,0.14,-0.78,9.88,0.04,0.00,0.00,0.48,-0.93,9.93,0.04,0.00,-0.01,2.20,-0.98,9.56,3938.4331,10552.3574,0.35
883120106,0.04,0.00,0.00,0.01,-0.87,9.80,0.04,0.00,0.00,0.27,-0.60,9.84,0.04,0.01,-0.00,0.18,-0.84,9.76,0.04,0.00,0.00,0.41,-0.96,9.82,0.04,0.00,-0.01,2.22,-1.03,9.57,3938.4331,10552.3574,0.35
883124518,0.05,0.00,0.00,0.01,-0.82,9.84,0.05,0.00,0.00,0.31,-0.56,9.84,0.04,0.01,-0.00,0.17,-0.78,9.82,0.05,0.00,-0.00,0.45,-0.91,9.88,0.05,-0.00,-0.01,2.28,-1.02,9.61,3938.4331,10552.3574,0.35
883128942,0.05,0.00,0.00,0.07,-0.84,9.85,0.04,0.00,-0.00,0.28,-0.56,9.90,0.04,0.01,-0.00,0.18,-0.78,9.83,0.04,0.00,-0.00,0.46,-0.93,9.94,0.05,0.00,-0.01,2.25,-0.96,9.59,3938.4331,10552.3574,0.35
883133376,0.05,-0.00,-0.00,0.07,-0.82,9.80,0.05,-0.00,0.00,0.26,-0.56,9.86,0.04,0.01,-0.00,0.17,-0.82,9.83,0.04,0.00,-0.00,0.46,-0.90,9.82,0.04,0.00,-0.01,2.23,-1.00,9.59,3938.4331,10552.3574,0.35
883137727,0.05,0.00,0.00,0.11,-0.78,9.81,0.04,0.00,-0.00,0.37,-0.56,9.89,0.04,0.01,-0.00,0.20,-0.79,9.88,0.04,0.00,-0.00,0.47,-0.98,9.77,0.04,0.00,-0.01,2.30,-0.99,9.56,3938.4331,10552.3574,0.35
883141986,0.05,0.00,0.00,0.10,-0.79,9.81,0.05,-0.00,0.00,0.30,-0.56,9.88,0.04,0.01,-0.00,0.19,-0.78,9.82,0.05,0.00,-0.00,0.47,-0.92,9.85,0.04,0.00,-0.01,2.23,-0.97,9.62,3938.4331,10552.3574,0.35
883146263,0.05,0.00,0.00,0.11,-0.75,9.81,0.05,-0.00,0.00,0.31,-0.55,9.87,0.04,0.01,-0.00,0.22,-0.79,9.87,0.04,0.00,-0.00,0.47,-0.88,9.84,0.05,0.00,-0.01,2.30,-0.99,9.55,3938.4331,10552.3574,0.35
883150621,0.05,0.00,0.01,0.15,-0.77,9.85,0.05,-0.00,0.00,0.35,-0.53,9.88,0.04,0.01,-0.00,0.28,-0.80,9.83,0.05,0.00,0.00,0.52,-0.90,9.84,0.05,0.00,-0.01,2.30,-1.00,9.51,3938.4331,10552.3574,0.35
883155057,0.06,0.00,-0.00,0.05,-0.78,9.85,0.05,-0.00,-0.00,0.34,-0.53,9.89,0.05,0.01,-0.00,0.20,-0.77,9.81,0.05,0.00,-0.00,0.47,-0.91,9.90,0.05,0.00,-0.01,2.29,-0.98,9.59,3938.4331,10552.3574,0.35
883159498,0.06,0.00,0.00,0.08,-0.79,9.84,0.05,-0.00,-0.00,0.30,-0.53,9.92,0.05,0.01,-0.00,0.20,-0.79,9.88,0.05,0.00,-0.00,0.46,-0.91,9.89,0.05,0.00,-0.01,2.24,-0.95,9.56,3938.4331,10552.3574,0.35
883163950,0.06,0.00,0.00,0.05,-0.71,9.88,0.05,0.00,-0.00,0.29,-0.46,9.99,0.05,0.01,0.00,0.18,-0.77,9.84,0.05,0.00,-0.00,0.48,-0.93,9.85,0.06,0.00,-0.01,2.23,-0.95,9.59,3938.4331,10552.3574,0.35
883168131,0.06,0.00,0.00,0.05,-0.76,9.77,0.05,0.00,-0.00,0.27,-0.53,9.84,0.05,0.01,-0.00,0.14,-0.77,9.84,0.05,0.00,-0.00,0.41,-0.92,9.82,0.05,0.01,-0.01,2.23,-0.99,9.63,3938.4331,10552.3574,0.35
883172233,0.06,0.00,-0.00,0.01,-0.78,9.81,0.06,0.00,-0.00,0.27,-0.53,9.85,0.05,0.01,-0.00,0.19,-0.83,9.75,0.06,0.01,-0.00,0.43,-0.92,9.91,0.06,0.00,-0.01,2.25,-0.98,9.64,3938.4331,10552.3574,0.35
883176225,0.07,0.00,0.00,-0.02,-0.80,9.83,0.06,0.00,-0.00,0.28,-0.54,9.82,0.05,0.01,0.00,0.12,-0.79,9.83,0.06,0.00,-0.00,0.45,-0.85,9.81,0.06,0.00,-0.01,2.25,-1.00,9.61,3938.4331,10552.3574,0.35
883181330,0.07,0.00,0.00,0.04,-0.81,9.80,0.06,0.00,-0.00,0.29,-0.56,9.78,0.06,0.01,-0.00,0.17,-0.82,9.76,0.06,0.01,-0.00,0.47,-0.89,9.83,0.06,0.00,-0.01,2.22,-1.04,9.48,3938.4331,10552.3574,0.35
883185419,0.08,0.00,0.00,0.07,-0.82,9.83,0.07,0.00,-0.00,0.28,-0.56,9.88,0.07,0.01,-0.00,0.15,-0.80,9.78,0.07,0.01,-0.00,0.45,-0.91,9.85,0.07,0.00,-0.02,2.21,-1.04,9.39,3938.4331,10552.3574,0.35
883189583,0.09,0.00,0.00,-0.01,-0.79,9.82,0.08,0.00,-0.00,0.26,-0.51,9.89,0.07,0.01,-0.00,0.13,-0.75,9.87,0.08,0.01,-0.00,0.44,-0.92,9.88,0.08,0.01,-0.02,2.23,-1.01,9.54,3938.4331,10552.3574,0.35
883194059,0.08,0.00,0.00,0.02,-0.71,9.87,0.07,0.00,-0.00,0.24,-0.54,9.88,0.07,0.01,-0.00,0.10,-0.81,9.87,0.08,0.01,-0.01,0.42,-0.93,10.01,0.08,0.01,-0.02,2.24,-0.95,9.59,3938.4331,10552.3574,0.35
883198500,0.08,0.01,0.00,0.02,-0.76,9.87,0.08,0.00,-0.00,0.22,-0.54,9.93,0.07,0.01,-0.00,0.12,-0.80,9.92,0.08,0.01,-0.01,0.42,-0.90,9.96,0.08,0.01,-0.02,2.20,-0.92,9.73,3938.4331,10552.3574,0.35
883202882,0.08,0.00,-0.00,0.01,-0.79,9.82,0.07,0.00,-0.00,0.25,-0.52,9.93,0.07,0.01,-0.00,0.12,-0.75,9.95,0.07,0.01,-0.00,0.42,-0.86,10.03,0.07,0.01,-0.02,2.24,-0.86,9.87,3938.4331,10552.3574,0.35
883207191,0.07,0.00,0.00,-0.01,-0.72,9.85,0.06,0.00,0.00,0.22,-0.51,9.97,0.06,0.01,-0.00,0.14,-0.76,9.89,0.06,0.01,-0.01,0.41,-0.88,9.94,0.06,0.00,-0.01,2.20,-0.92,9.73,3938.4331,10552.3574,0.35
883211535,0.07,0.00,0.00,0.01,-0.75,9.86,0.06,-0.00,-0.00,0.24,-0.52,9.87,0.06,0.01,-0.00,0.12,-0.74,9.85,0.06,0.01,-0.00,0.45,-0.88,9.77,0.06,0.00,-0.02,2.22,-0.94,9.55,3938.4331,10552.3574,0.35
883215825,0.07,0.01,0.00,0.01,-0.69,9.86,0.06,0.00,-0.00,0.26,-0.48,9.89,0.06,0.01,0.00,0.12,-0.74,9.79,0.06,0.01,-0.00,0.40,-0.90,9.85,0.06,0.00,-0.01,2.18,-0.97,9.44,3938.4331,10552.3574,0.35
883221644,0.07,0.01,0.00,0.05,-0.74,9.82,0.07,-0.00,-0.01,0.30,-0.53,9.89,0.06,0.01,-0.00,0.20,-0.80,9.85,0.07,0.01,-0.01,0.42,-0.90,9.86,0.07,0.01,-0.02,2.24,-0.95,9.55,3938.4331,10552.3574,0.35
883226099,0.07,0.01,0.00,0.07,-0.80,9.83,0.06,0.00,-0.00,0.28,-0.47,9.85,0.06,0.01,-0.00,0.20,-0.79,9.89,0.07,0.01,-0.00,0.48,-0.90,9.90,0.07,0.01,-0.02,2.27,-0.92,9.69,3938.4331,10552.3574,0.35
883230525,0.06,0.00,0.01,0.08,-0.77,9.86,0.06,0.00,0.00,0.31,-0.47,9.87,0.06,0.01,-0.00,0.16,-0.73,9.89,0.06,0.01,-0.00,0.47,-0.86,9.85,0.06,0.01,-0.02,2.29,-0.90,9.76,3938.4331,10552.3574,0.35
883234923,0.06,0.01,0.00,0.07,-0.76,9.81,0.05,-0.00,-0.00,0.29,-0.50,9.88,0.05,0.01,-0.00,0.18,-0.77,9.91,0.05,0.01,-0.00,0.53,-0.91,10.09,0.05,0.00,-0.01,2.30,-0.86,9.59,3938.4331,10552.3574,0.35
883239269,0.06,0.00,0.01,0.05,-0.72,9.85,0.06,0.00,-0.00,0.28,-0.45,9.97,0.06,0.01,-0.00,0.15,-0.70,9.85,0.05,0.01,-0.00,0.50,-0.86,9.80,0.05,-0.00,-0.01,2.25,-0.91,9.62,3938.4331,10552.3574,0.35
883243597,0.06,0.00,0.00,0.13,-0.71,9.86,0.05,0.00,-0.00,0.34,-0.46,9.89,0.05,0.01,-0.00,0.20,-0.70,9.81,0.05,0.00,0.00,0.49,-0.83,9.89,0.05,0.00,-0.01,2.33,-0.92,9.55,3938.4331,10552.3574,0.35
883247950,0.06,0.00,0.00,0.08,-0.76,9.82,0.05,0.00,-0.00,0.30,-0.46,9.85,0.05,0.01,-0.00,0.17,-0.71,9.82,0.06,0.01,0.00,0.45,-0.88,9.79,0.06,0.01,-0.01,2.27,-0.95,9.51,3938.4331,10552.3574,0.35
883252317,0.06,0.01,0.00,0.09,-0.71,9.84,0.06,0.00,-0.00,0.26,-0.52,9.84,0.06,0.01,-0.00,0.18,-0.85,9.81,0.06,0.01,0.00,0.44,-0.93,9.80,0.06,0.01,-0.01,2.25,-0.93,9.55,3938.4331,10552.3574,0.35
883256675,0.07,0.00,-0.00,0.04,-0.75,9.76,0.06,0.00,-0.00,0.29,-0.55,9.84,0.06,0.01,0.00,0.12,-0.79,9.82,0.06,0.01,-0.00,0.44,-0.91,9.88,0.06,0.00,-0.02,2.20,-0.94,9.58,3938.4331,10552.3574,0.35
883260823,0.08,0.00,0.00,0.01,-0.77,9.77,0.07,-0.00,-0.00,0.25,-0.50,9.91,0.07,0.01,-0.00,0.14,-0.73,9.75,0.07,0.01,-0.00,0.40,-0.88,9.82,0.07,0.00,-0.02,2.23,-0.92,9.58,3938.4331,10552.3574,0.35
883264984,0.08,0.00,0.00,0.00,-0.75,9.79,0.07,0.00,-0.00,0.22,-0.58,9.84,0.07,0.01,-0.00,0.15,-0.77,9.65,0.07,0.01,-0.00,0.40,-0.90,9.84,0.07,0.01,-0.02,2.20,-0.96,9.54,3938.4331,10552.3574,0.35
883269097,0.08,0.00,0.00,0.00,-0.71,9.84,0.08,0.00,-0.00,0.24,-0.45,9.83,0.08,0.01,-0.00,0.11,-0.73,9.77,0.08,0.01,-0.00,0.41,-0.86,9.77,0.08,0.01,-0.02,2.18,-0.99,9.43,3938.4331,10552.3574,0.35
883274253,0.09,0.00,0.00,-0.05,-0.68,9.83,0.09,0.00,0.00,0.24,-0.48,9.93,0.09,0.01,-0.01,0.11,-0.77,9.85,0.08,0.01,-0.01,0.39,-0.84,9.84,0.09,0.01,-0.02,2.17,-0.94,9.52,3938.4331,10552.3574,0.35
883278290,0.09,0.00,0.00,-0.03,-0.67,9.85,0.08,0.00,-0.00,0.20,-0.42,9.88,0.08,0.01,0.00,0.05,-0.64,9.82,0.09,0.01,-0.01,0.33,-0.80,9.90,0.09,0.01,-0.02,2.18,-0.92,9.66,3938.4331,10552.3574,0.35
883282357,0.08,0.01,0.00,-0.02,-0.70,9.93,0.08,0.00,-0.00,0.25,-0.43,9.88,0.08,0.01,-0.00,0.09,-0.72,9.92,0.08,0.01,-0.00,0.36,-0.80,9.91,0.08,0.01,-0.02,2.14,-0.85,9.86,3938.4331,10552.3574,0.35
883286738,0.08,0.00,-0.00,0.03,-0.69,9.89,0.07,-0.00,-0.00,0.25,-0.44,9.98,0.07,0.01,-0.00,0.15,-0.72,9.98,0.08,0.01,-0.00,0.43,-0.82,9.99,0.07,0.01,-0.02,2.23,-0.88,9.91,3938.4331,10552.3574,0.35
883291119,0.07,-0.00,0.00,0.06,-0.69,9.91,0.07,0.00,-0.00,0.27,-0.44,9.92,0.06,0.01,-0.00,0.18,-0.65,9.94,0.06,0.01,-0.00,0.47,-0.76,9.99,0.06,0.00,-0.01,2.27,-0.79,9.90,3938.4331,10552.3574,0.35
883295555,0.06,0.00,0.00,0.03,-0.67,9.88,0.06,-0.00,-0.00,0.27,-0.45,9.93,0.05,0.01,-0.00,0.17,-0.70,9.89,0.05,0.00,-0.00,0.47,-0.82,9.92,0.05,0.00,-0.01,2.27,-0.88,9.66,3938.4331,10552.3574,0.35
883300004,0.05,0.00,-0.00,0.02,-0.67,9.87,0.05,0.00,-0.00,0.27,-0.41,9.96,0.05,0.01,-0.00,0.13,-0.66,9.92,0.05,0.00,-0.00,0.42,-0.80,9.94,0.05,0.00,-0.01,2.22,-0.86,9.58,3938.4331,10552.3574,0.35
883304471,0.04,0.00,0.00,0.06,-0.64,9.93,0.04,-0.00,-0.00,0.25,-0.37,9.93,0.04,0.01,-0.00,0.16,-0.66,9.95,0.04,0.01,0.00,0.48,-0.78,9.94,0.05,0.00,-0.01,2.28,-0.85,9.68,3938.4331,10552.3574,0.35
883308809,0.03,0.00,-0.00,0.06,-0.68,9.89,0.03,-0.00,-0.00,0.33,-0.44,9.92,0.03,0.01,-0.00,0.20,-0.68,9.92,0.03,0.01,-0.00,0.47,-0.84,10.00,0.04,0.00,-0.01,2.33,-0.85,9.85,3938.4331,10552.3574,0.35
883313134,0.03,0.00,-0.00,0.06,-0.71,9.85,0.02,-0.00,0.00,0.31,-0.41,9.90,0.02,0.00,-0.00,0.16,-0.67,9.92,0.03,0.00,-0.01,0.48,-0.79,10.02,0.03,-0.00,-0.01,2.28,-0.90,9.82,3938.4331,10552.3574,0.35
883317481,0.02,0.00,0.00,0.09,-0.66,9.82,0.02,-0.00,0.00,0.31,-0.44,9.91,0.02,0.00,-0.00,0.21,-0.74,9.87,0.02,-0.00,-0.00,0.50,-0.78,9.97,0.02,-0.01,-0.01,2.26,-0.87,9.74,3938.4331,10552.3574,0.35
883321836,0.02,0.00,0.00,0.10,-0.71,9.82,0.02,-0.00,0.00,0.32,-0.48,9.85,0.02,0.00,-0.00,0.21,-0.68,9.84,0.01,-0.00,-0.00,0.49,-0.81,9.90,0.01,-0.01,-0.00,2.30,-0.89,9.52,3938.4331,10552.3574,0.35
883326199,0.03,0.00,0.00,0.08,-0.72,9.82,0.02,-0.00,-0.00,0.24,-0.47,9.87,0.02,0.00,-0.00,0.15,-0.69,9.75,0.02,0.00,-0.00,0.44,-0.84,9.72,0.02,-0.00,-0.01,2.18,-0.94,9.41,3938.4331,10552.3574,0.35
883330603,0.03,0.00,-0.00,0.03,-0.70,9.81,0.03,-0.00,-0.00,0.24,-0.42,9.84,0.03,0.00,-0.00,0.15,-0.73,9.82,0.03,0.00,-0.00,0.42,-0.85,9.75,0.03,-0.00,-0.01,2.19,-0.92,9.43,3938.4331,10552.3574,0.35
883335057,0.04,0.00,0.00,-0.01,-0.70,9.80,0.03,0.00,-0.00,0.26,-0.45,9.86,0.03,0.01,-0.00,0.18,-0.64,9.77,0.04,0.01,-0.00,0.41,-0.83,9.81,0.04,0.00,-0.01,2.16,-0.91,9.48,3938.4331,10552.3574,0.35
883339526,0.04,0.00,0.00,0.00,-0.70,9.80,0.04,-0.00,-0.00,0.21,-0.44,9.84,0.04,0.00,-0.00,0.09,-0.64,9.79,0.04,0.01,-0.00,0.36,-0.77,9.85,0.04,0.00,-0.01,2.18,-0.92,9.64,3938.4331,10552.3574,0.35
883343924,0.05,0.00,-0.00,-0.04,-0.68,9.82,0.04,-0.00,0.00,0.18,-0.42,9.88,0.04,0.01,-0.00,0.05,-0.70,9.82,0.04,0.00,-0.00,0.31,-0.82,9.89,0.05,0.00,-0.01,2.14,-0.85,9.70,3938.4331,10552.3574,0.35
883348212,0.05,0.00,-0.00,-0.12,-0.67,9.83,0.05,-0.00,-0.00,0.17,-0.44,9.89,0.05,0.01,-0.00,0.00,-0.65,9.88,0.05,0.00,-0.00,0.30,-0.83,9.89,0.04,0.00,-0.01,2.11,-0.91,9.62,3938.4331,10552.3574,0.35
883352270,0.05,0.00,-0.00,-0.14,-0.70,9.85,0.05,-0.00,-0.00,0.12,-0.45,9.85,0.05,0.01,-0.00,-0.03,-0.65,9.85,0.05,0.00,-0.00,0.32,-0.82,9.89,0.05,0.00,-0.01,2.06,-0.89,9.54,3938.4331,10552.3574,0.35
883357665,0.05,0.00,0.00,-0.19,-0.67,9.82,0.05,-0.00,0.00,0.05,-0.41,9.88,0.05,0.01,-0.00,-0.03,-0.65,9.87,0.05,0.01,-0.00,0.25,-0.81,9.87,0.05,0.01,-0.01,2.00,-0.94,9.49,3938.4331,10552.3574,0.35
883362889,0.05,0.00,0.00,-0.19,-0.63,9.86,0.05,0.00,-0.00,0.00,-0.38,9.89,0.05,0.01,-0.00,-0.06,-0.71,9.82,0.05,0.01,-0.00,0.23,-0.75,9.94,0.05,0.01,-0.01,2.03,-0.87,9.69,3938.4331,10552.3574,0.35
883367044,0.05,0.00,-0.00,-0.20,-0.68,9.85,0.05,0.00,-0.00,0.02,-0.42,9.90,0.05,0.01,0.00,-0.09,-0.72,9.94,0.05,0.01,-0.00,0.18,-0.78,9.98,0.05,0.01,-0.01,2.01,-0.87,9.74,3938.4331,10552.3574,0.35
883371171,0.05,0.00,0.00,-0.20,-0.64,9.83,0.04,-0.00,0.00,0.05,-0.38,9.92,0.04,0.01,-0.01,-0.04,-0.63,9.88,0.04,0.01,-0.00,0.21,-0.76,9.96,0.05,0.00,-0.01,2.00,-0.87,9.76,3938.4331,10552.3574,0.35
883375239,0.04,0.00,0.00,-0.22,-0.66,9.88,0.04,-0.00,-0.00,0.07,-0.46,9.91,0.04,0.01,-0.00,-0.04,-0.72,9.90,0.04,0.01,-0.00,0.22,-0.81,9.92,0.04,0.00,-0.01,2.06,-0.81,9.75,3938.4331,10552.3574,0.35
883379585,0.04,0.00,0.00,-0.20,-0.67,9.86,0.03,-0.00,-0.00,0.08,-0.43,9.87,0.03,0.00,-0.00,-0.06,-0.68,9.88,0.03,0.00,-0.00,0.21,-0.78,9.93,0.04,0.00,-0.01,2.08,-0.86,9.64,3938.4331,10552.3574,0.35
883383937,0.04,0.00,0.00,-0.18,-0.70,9.85,0.04,-0.00,0.00,0.10,-0.44,9.87,0.04,0.01,-0.00,-0.07,-0.67,9.84,0.03,0.00,-0.00,0.17,-0.78,9.90,0.03,-0.00,-0.01,2.03,-0.90,9.63,3938.4331,10552.3574,0.35
883388258,0.04,0.00,0.00,-0.17,-0.68,9.79,0.04,-0.00,0.00,0.05,-0.39,9.84,0.04,0.01,-0.00,-0.08,-0.65,9.82,0.04,0.00,-0.00,0.26,-0.78,9.86,0.04,0.00,-0.01,2.02,-0.82,9.60,3938.4331,10552.3574,0.35
883392671,0.04,0.00,0.00,-0.18,-0.66,9.85,0.04,-0.00,0.00,0.07,-0.39,9.91,0.04,0.01,-0.00,-0.04,-0.66,9.81,0.04,0.01,-0.00,0.20,-0.78,9.87,0.04,0.00,-0.01,2.02,-0.83,9.61,3938.4331,10552.3574,0.35
883397140,0.04,0.00,0.00,-0.13,-0.69,9.83,0.04,0.00,0.00,0.02,-0.45,9.87,0.04,0.01,-0.00,-0.07,-0.68,9.84,0.04,0.01,-0.00,0.23,-0.79,9.87,0.04,0.01,-0.01,1.99,-0.85,9.69,3938.4331,10552.3574,0.35
883401595,0.04,0.00,0.00,-0.15,-0.65,9.83,0.04,0.00,0.00,0.10,-0.38,9.92,0.04,0.01,-0.00,-0.06,-0.68,9.82,0.04,0.01,-0.00,0.26,-0.78,9.92,0.04,0.00,-0.01,2.04,-0.86,9.68,3938.4331,10552.3574,0.35
883406022,0.04,0.00,-0.00,-0.09,-0.62,9.86,0.04,-0.00,0.00,0.09,-0.37,9.89,0.04,0.01,-0.00,-0.01,-0.64,9.91,0.04,0.01,-0.00,0.29,-0.78,9.92,0.04,0.00,-0.01,2.09,-0.87,9.69,3938.4331,10552.3574,0.35
883410391,0.04,0.00,0.00,-0.11,-0.64,9.84,0.03,-0.00,0.00,0.13,-0.40,9.93,0.03,0.00,-0.00,0.05,-0.64,9.87,0.03,0.01,-0.00,0.30,-0.78,9.93,0.04,0.00,-0.01,2.11,-0.84,9.68,3938.4331,10552.3574,0.35
883414712,0.04,0.00,0.00,-0.06,-0.67,9.83,0.03,-0.00,-0.00,0.16,-0.42,9.86,0.03,0.01,0.00,0.05,-0.69,9.89,0.03,0.01,-0.00,0.32,-0.79,9.93,0.03,0.00,-0.01,2.11,-0.84,9.69,3938.4331,10552.3574,0.35
883419042,0.04,0.00,0.00,-0.07,-0.67,9.85,0.03,0.00,0.00,0.21,-0.44,9.91,0.03,0.00,-0.00,0.05,-0.62,9.84,0.03,0.00,0.00,0.37,-0.77,9.93,0.03,0.00,-0.01,2.14,-0.85,9.63,3938.4331,10552.3574,0.35
883423421,0.04,0.00,0.00,-0.03,-0.62,9.84,0.03,-0.00,0.00,0.21,-0.36,9.90,0.03,0.01,-0.00,0.05,-0.67,9.84,0.03,0.01,-0.00,0.37,-0.75,9.89,0.03,0.00,-0.01,2.13,-0.82,9.58,3938.4331,10552.3574,0.35
883427789,0.03,0.00,0.00,0.00,-0.64,9.85,0.03,-0.00,0.00,0.22,-0.40,9.90,0.03,0.01,-0.00,0.09,-0.68,9.88,0.03,0.00,0.00,0.37,-0.79,9.91,0.03,0.00,-0.01,2.18,-0.85,9.64,3938.4331,10552.3574,0.35
883432229,0.03,0.00,0.00,0.05,-0.63,9.84,0.03,-0.00,-0.00,0.24,-0.39,9.91,0.03,0.01,-0.00,0.15,-0.64,9.86,0.03,0.00,-0.00,0.41,-0.74,9.91,0.03,0.00,-0.01,2.22,-0.89,9.68,3938.4331,10552.3574,0.35
883436709,0.03,-0.00,0.00,0.04,-0.67,9.86,0.03,-0.00,-0.00,0.30,-0.43,9.86,0.03,0.01,-0.00,0.11,-0.66,9.82,0.03,0.00,-0.00,0.44,-0.78,9.94,0.03,0.00,-0.01,2.24,-0.83,9.64,3938.4331,10552.3574,0.35
883441159,0.03,0.00,0.00,0.06,-0.67,9.88,0.03,-0.00,0.00,0.24,-0.41,9.86,0.03,0.00,-0.00,0.11,-0.65,9.86,0.03,0.01,-0.00,0.46,-0.78,9.87,0.03,0.00,-0.01,2.26,-0.84,9.68,3938.4331,10552.3574,0.35
883445278,0.03,0.00,0.00,0.04,-0.63,9.81,0.03,-0.00,0.00,0.27,-0.36,9.90,0.03,0.00,-0.00,0.17,-0.63,9.83,0.03,0.00,-0.00,0.46,-0.80,9.92,0.03,-0.00,-0.01,2.27,-0.91,9.56,3938.4331,10552.3574,0.35
883449388,0.03,0.00,-0.00,-0.01,-0.67,9.84,0.03,-0.00,-0.00,0.27,-0.45,9.84,0.03,0.00,0.00,0.18,-0.66,9.85,0.03,0.00,-0.00,0.43,-0.74,9.83,0.03,0.00,-0.01,2.22,-0.81,9.61,3938.4331,10552.3574,0.35
883458233,0.04,0.00,0.01,0.02,-0.62,9.85,0.04,-0.00,-0.00,0.27,-0.36,9.87,0.04,0.01,-0.00,0.14,-0.65,9.80,0.04,0.01,0.00,0.43,-0.78,9.81,0.04,0.00,-0.01,2.13,-0.84,9.51,3938.4331,10552.3574,0.35
883462354,0.04,0.00,-0.00,-0.03,-0.61,9.86,0.04,0.00,0.00,0.18,-0.36,9.87,0.04,0.01,-0.00,0.06,-0.63,9.82,0.04,0.01,-0.00,0.36,-0.78,9.85,0.05,0.01,-0.01,2.16,-0.92,9.60,3938.4331,10552.3574,0.35
883466489,0.05,0.00,0.00,-0.06,-0.63,9.86,0.04,-0.00,-0.00,0.20,-0.41,9.85,0.04,0.01,-0.00,0.10,-0.66,9.82,0.04,0.01,-0.00,0.32,-0.78,9.87,0.05,0.01,-0.01,2.15,-0.82,9.63,3938.4331,10552.3574,0.35
883470618,0.05,0.00,0.00,-0.06,-0.56,9.85,0.04,-0.00,-0.00,0.17,-0.32,9.86,0.05,0.01,-0.01,0.03,-0.53,9.87,0.05,0.01,0.00,0.35,-0.69,9.67,0.05,0.00,-0.01,2.05,-0.79,9.70,3938.4331,10552.3574,0.35
883475076,0.05,0.01,-0.00,-0.06,-0.61,9.83,0.04,-0.00,-0.00,0.14,-0.41,9.94,0.04,0.01,0.00,0.08,-0.61,9.85,0.04,0.01,0.01,0.31,-0.71,9.82,0.05,0.01,-0.01,2.11,-0.77,9.64,3938.4331,10552.3574,0.35
883479489,0.05,0.00,0.00,-0.07,-0.60,9.85,0.04,-0.00,-0.00,0.16,-0.39,9.92,0.04,0.00,-0.00,0.03,-0.67,9.85,0.04,0.01,-0.00,0.28,-0.77,9.91,0.04,0.00,-0.01,2.16,-0.81,9.75,3938.4331,10552.3574,0.35
883483837,0.04,0.00,0.00,-0.06,-0.64,9.85,0.04,-0.00,-0.00,0.17,-0.42,9.91,0.04,0.01,0.00,0.05,-0.64,9.89,0.04,0.01,-0.01,0.35,-0.77,9.88,0.04,0.00,-0.01,2.12,-0.84,9.63,3938.4331,10552.3574,0.35
883488143,0.04,0.00,0.00,-0.08,-0.59,9.85,0.04,0.00,0.00,0.18,-0.36,9.84,0.04,0.01,-0.00,0.04,-0.65,9.86,0.04,0.00,0.00,0.34,-0.76,9.93,0.04,0.00,-0.01,2.13,-0.82,9.64,3938.4331,10552.3574,0.35
883493905,0.04,0.00,0.00,-0.06,-0.62,9.84,0.04,-0.00,0.00,0.22,-0.41,9.86,0.04,0.01,-0.00,0.08,-0.64,9.85,0.04,0.01,-0.00,0.34,-0.77,9.94,0.04,0.00,-0.01,2.12,-0.82,9.64,3938.4331,10552.3574,0.35
883498322,0.04,0.00,0.00,-0.04,-0.62,9.85,0.03,-0.00,-0.00,0.22,-0.34,9.90,0.03,0.01,-0.00,0.09,-0.58,9.86,0.03,0.01,-0.00,0.38,-0.69,9.91,0.04,0.00,-0.01,2.20,-0.81,9.71,3938.4331,10552.3574,0.35
883502786,0.04,0.00,0.00,-0.04,-0.64,9.85,0.03,-0.00,0.00,0.17,-0.33,9.91,0.03,0.00,0.00,0.06,-0.57,9.88,0.03,0.01,-0.01,0.37,-0.73,9.87,0.03,0.00,-0.01,2.14,-0.82,9.72,3938.4331,10552.3574,0.35
883507205,0.03,0.00,0.00,-0.03,-0.62,9.84,0.03,-0.00,-0.00,0.19,-0.33,9.91,0.03,0.01,-0.00,0.03,-0.59,9.86,0.03,0.00,-0.00,0.35,-0.76,9.94,0.03,0.00,-0.01,2.11,-0.79,9.70,3938.4331,10552.3574,0.35
883511630,0.03,0.00,0.00,-0.06,-0.62,9.83,0.03,-0.00,-0.00,0.16,-0.36,9.89,0.02,0.00,-0.00,0.03,-0.63,9.86,0.02,0.00,-0.00,0.33,-0.73,9.89,0.03,-0.00,-0.01,2.14,-0.81,9.66,3938.4331,10552.3574,0.35
883516010,0.03,0.00,0.00,-0.06,-0.60,9.85,0.02,-0.00,0.00,0.17,-0.33,9.88,0.02,0.01,-0.00,-0.01,-0.57,9.83,0.02,0.00,-0.00,0.32,-0.75,9.86,0.03,0.00,-0.01,2.13,-0.86,9.62,3938.4331,10552.3574,0.35
883520358,0.02,0.00,0.00,-0.08,-0.57,9.86,0.02,-0.00,0.00,0.17,-0.35,9.92,0.02,0.01,-0.00,0.05,-0.65,9.84,0.02,0.01,-0.00,0.37,-0.74,9.88,0.03,0.00,-0.00,2.13,-0.82,9.69,3938.4331,10552.3574,0.35
883524666,0.02,0.00,0.00,-0.02,-0.59,9.85,0.02,-0.00,-0.00,0.18,-0.34,9.88,0.02,0.01,0.00,0.05,-0.63,9.88,0.02,0.01,-0.00,0.35,-0.72,9.93,0.02,0.00,-0.01,2.14,-0.78,9.70,3938.4331,10552.3574,0.35
883529002,0.02,0.00,0.00,-0.06,-0.60,9.86,0.01,-0.00,-0.00,0.20,-0.36,9.91,0.02,0.00,-0.00,0.07,-0.57,9.88,0.02,0.00,-0.00,0.39,-0.73,9.95,0.02,-0.00,-0.01,2.15,-0.79,9.70,3938.4331,10552.3574,0.35
883533438,0.01,0.00,0.00,-0.05,-0.60,9.81,0.01,-0.00,0.00,0.19,-0.37,9.89,0.01,0.00,-0.00,0.06,-0.63,9.85,0.01,0.00,-0.00,0.37,-0.74,9.93,0.01,-0.00,-0.00,2.14,-0.79,9.66,3938.4331,10552.3574,0.35
883537636,0.01,0.00,0.00,-0.01,-0.59,9.84,0.01,-0.00,-0.00,0.23,-0.33,9.93,0.01,0.00,-0.00,0.10,-0.61,9.85,0.01,0.00,0.00,0.43,-0.69,9.94,0.01,-0.00,-0.00,2.16,-0.83,9.64,3938.4331,10552.3574,0.35
883541778,0.01,0.00,0.00,-0.02,-0.61,9.82,0.01,-0.00,0.00,0.19,-0.36,9.89,0.01,0.00,-0.00,0.06,-0.61,9.86,0.01,0.00,0.00,0.36,-0.75,9.85,0.01,-0.00,-0.01,2.18,-0.79,9.59,3938.4331,10552.3574,0.35
883549149,0.01,0.00,0.00,0.02,-0.62,9.85,0.00,-0.00,-0.00,0.22,-0.37,9.84,0.01,0.00,-0.00,0.08,-0.63,9.87,0.01,0.00,-0.00,0.40,-0.74,9.86,0.01,-0.00,-0.00,2.16,-0.81,9.60,3938.4331,10552.3574,0.35
883554275,0.01,-0.00,0.00,0.03,-0.64,9.85,0.00,-0.00,-0.00,0.22,-0.37,9.87,0.01,0.00,-0.00,0.18,-0.58,9.82,0.01,0.00,-0.00,0.43,-0.74,9.92,0.01,-0.00,-0.00,2.25,-0.78,9.62,3938.4331,10552.3574,0.35
883558342,0.01,-0.00,0.00,0.04,-0.60,9.85,0.00,-0.00,0.00,0.27,-0.38,9.85,0.01,0.00,-0.00,0.12,-0.61,9.86,0.01,0.00,0.00,0.44,-0.72,9.91,0.01,0.00,-0.00,2.18,-0.81,9.63,3938.4331,10552.3574,0.35
883562430,0.01,-0.00,0.00,0.02,-0.59,9.81,0.00,-0.00,0.00,0.24,-0.38,9.93,0.01,0.00,0.00,0.14,-0.58,9.83,0.01,0.00,-0.00,0.42,-0.73,9.91,0.01,-0.00,-0.00,2.18,-0.77,9.69,3938.4331,10552.3574,0.35
883566513,0.01,0.00,0.00,0.04,-0.53,9.81,0.01,-0.00,0.00,0.29,-0.31,9.85,0.00,0.00,-0.00,0.15,-0.59,9.82,0.01,0.00,0.00,0.44,-0.75,9.88,0.01,-0.01,-0.00,2.22,-0.83,9.56,3938.4331,10552.3574,0.35
883570983,0.01,0.00,0.00,0.04,-0.65,9.88,0.01,-0.00,0.00,0.28,-0.37,9.87,0.00,0.00,-0.00,0.14,-0.65,9.74,0.01,0.00,-0.00,0.46,-0.72,9.91,0.01,-0.00,-0.00,2.25,-0.81,9.63,3938.4331,10552.3574,0.35
883575465,0.01,-0.00,0.00,-0.02,-0.66,9.80,0.01,-0.00,0.00,0.23,-0.40,9.84,0.01,0.00,-0.00,0.11,-0.63,9.82,0.01,0.00,-0.00,0.40,-0.76,9.85,0.01,-0.00,-0.00,2.15,-0.83,9.53,3938.4331,10552.3574,0.35
883579923,0.01,0.00,0.00,0.03,-0.62,9.87,0.00,-0.00,0.00,0.25,-0.40,9.84,0.01,0.00,-0.00,0.09,-0.63,9.76,0.01,0.00,-0.00,0.41,-0.75,9.88,0.01,-0.00,-0.00,2.22,-0.77,9.60,3938.4331,10552.3574,0.35
883584358,0.01,0.00,0.00,0.03,-0.61,9.86,0.01,-0.00,0.00,0.26,-0.36,9.85,0.01,0.00,-0.00,0.15,-0.56,9.83,0.01,0.00,0.00,0.43,-0.74,9.86,0.01,-0.00,-0.00,2.18,-0.82,9.59,3938.4331,10552.3574,0.35
883588634,0.01,0.00,-0.00,0.01,-0.61,9.85,0.01,-0.00,-0.00,0.25,-0.41,9.87,0.01,0.00,-0.00,0.10,-0.63,9.86,0.01,0.00,0.00,0.41,-0.78,9.85,0.01,-0.00,-0.00,2.19,-0.79,9.62,3938.4331,10552.3574,0.35
883592976,0.01,-0.00,0.00,0.00,-0.59,9.83,0.01,-0.00,0.00,0.25,-0.36,9.86,0.01,0.00,-0.00,0.09,-0.61,9.83,0.01,0.01,-0.00,0.42,-0.71,9.89,0.01,-0.00,-0.00,2.19,-0.80,9.59,3938.4331,10552.3574,0.35
883597336,0.01,0.00,0.00,-0.04,-0.55,9.83,0.01,-0.00,0.00,0.20,-0.32,9.89,0.01,0.00,0.00,0.08,-0.62,9.85,0.01,0.00,-0.00,0.35,-0.74,9.90,0.01,-0.00,-0.01,2.18,-0.79,9.60,3938.4331,10552.3574,0.35
883601730,0.01,0.00,0.00,-0.01,-0.54,9.83,0.01,0.00,-0.00,0.20,-0.33,9.84,0.01,0.00,-0.00,0.08,-0.62,9.85,0.01,0.00,-0.00,0.40,-0.78,9.87,0.01,-0.00,-0.00,2.17,-0.80,9.59,3938.4331,10552.3574,0.35
883606124,0.01,0.00,0.00,-0.03,-0.63,9.81,0.01,-0.00,-0.00,0.20,-0.36,9.84,0.01,0.00,-0.00,0.10,-0.61,9.79,0.01,0.00,0.00,0.35,-0.76,9.89,0.02,-0.00,-0.01,2.16,-0.79,9.63,3938.4331,10552.3574,0.35
883610536,0.02,0.00,0.00,0.00,-0.60,9.85,0.01,-0.00,0.00,0.22,-0.33,9.89,0.01,0.00,-0.00,0.11,-0.56,9.82,0.01,0.00,-0.00,0.38,-0.77,9.87,0.02,-0.00,-0.00,2.19,-0.82,9.64,3938.4331,10552.3574,0.35
883614993,0.01,0.00,0.00,-0.06,-0.63,9.82,0.01,-0.00,0.00,0.22,-0.37,9.89,0.01,0.00,-0.00,0.10,-0.58,9.87,0.01,0.00,-0.00,0.38,-0.72,9.89,0.02,-0.00,-0.00,2.19,-0.83,9.56,3938.4331,10552.3574,0.35
883619437,0.02,0.00,-0.00,-0.02,-0.60,9.88,0.01,-0.00,-0.00,0.24,-0.37,9.92,0.01,0.00,-0.00,0.09,-0.58,9.82,0.01,0.00,-0.00,0.38,-0.70,9.94,0.02,-0.00,-0.00,2.16,-0.76,9.61,3938.4331,10552.3574,0.35
883623740,0.01,0.00,-0.00,-0.01,-0.56,9.85,0.01,-0.00,-0.00,0.21,-0.34,9.90,0.01,0.00,-0.00,0.12,-0.60,9.84,0.01,0.00,-0.00,0.37,-0.70,9.90,0.02,-0.00,-0.00,2.16,-0.77,9.62,3938.4331,10552.3574,0.35
883628094,0.01,0.00,-0.00,0.00,-0.55,9.84,0.01,0.00,0.00,0.23,-0.31,9.90,0.01,0.00,-0.00,0.05,-0.56,9.89,0.01,0.00,-0.00,0.37,-0.74,9.87,0.01,-0.00,-0.00,2.18,-0.80,9.65,3938.4331,10552.3574,0.35
883633572,0.01,0.00,0.00,-0.06,-0.59,9.85,0.00,-0.00,0.00,0.18,-0.36,9.92,0.00,0.00,-0.00,0.09,-0.56,9.90,0.01,0.00,0.00,0.39,-0.71,9.94,0.01,-0.00,-0.00,2.17,-0.79,9.65,3938.4331,10552.3574,0.35
883637726,0.01,0.00,0.00,-0.06,-0.62,9.80,0.00,-0.00,0.00,0.18,-0.38,9.86,0.00,0.00,-0.00,0.10,-0.62,9.86,0.00,0.00,0.00,0.42,-0.74,9.88,0.01,-0.00,-0.00,2.18,-0.75,9.65,3938.4331,10552.3574,0.35
883641852,0.01,0.00,0.00,-0.02,-0.64,9.87,0.00,-0.00,0.00,0.20,-0.36,9.84,0.00,0.00,-0.00,0.02,-0.64,9.83,0.00,0.00,0.00,0.38,-0.68,9.94,0.01,-0.00,-0.00,2.14,-0.73,9.70,3938.4331,10552.3574,0.35
883647028,0.01,0.00,0.00,-0.06,-0.61,9.82,0.00,-0.00,-0.00,0.14,-0.37,9.85,0.00,0.00,-0.00,0.02,-0.63,9.86,0.00,0.00,0.00,0.32,-0.70,9.84,0.01,-0.00,-0.00,2.15,-0.81,9.60,3938.4331,10552.3574,0.35
883651154,0.01,0.00,-0.00,-0.04,-0.60,9.81,0.00,-0.00,-0.00,0.17,-0.36,9.83,0.00,0.00,-0.00,0.05,-0.58,9.88,0.00,0.00,-0.00,0.36,-0.72,9.85,0.01,-0.00,-0.00,2.12,-0.79,9.61,3938.4331,10552.3574,0.35
883655231,0.01,0.00,0.00,-0.06,-0.62,9.84,0.01,-0.00,-0.00,0.21,-0.35,9.83,0.01,0.00,-0.00,0.09,-0.63,9.82,0.01,0.00,-0.00,0.36,-0.75,9.83,0.01,-0.00,-0.00,2.15,-0.81,9.60,3938.4331,10552.3574,0.35
883659573,0.01,0.00,0.00,-0.04,-0.58,9.82,0.01,-0.00,-0.00,0.21,-0.31,9.86,0.01,0.00,-0.00,0.07,-0.61,9.79,0.01,0.00,-0.00,0.39,-0.78,9.87,0.01,0.00,-0.00,2.12,-0.82,9.54,3938.4331,10552.3574,0.35
883663858,0.02,0.00,0.00,-0.02,-0.64,9.80,0.01,-0.00,0.00,0.19,-0.42,9.82,0.01,0.00,-0.00,0.05,-0.65,9.74,0.02,0.00,-0.00,0.40,-0.75,9.81,0.02,0.00,-0.01,2.14,-0.84,9.57,3938.4331,10552.3574,0.35
883668191,0.02,0.00,0.00,-0.04,-0.62,9.81,0.02,-0.00,0.00,0.18,-0.37,9.84,0.02,0.00,-0.00,0.07,-0.62,9.82,0.02,0.00,0.00,0.34,-0.77,9.87,0.02,0.00,-0.00,2.14,-0.84,9.54,3938.4331,10552.3574,0.35
883672619,0.03,0.01,0.00,-0.03,-0.56,9.83,0.03,-0.00,0.00,0.16,-0.35,9.80,0.03,0.01,-0.00,0.08,-0.59,9.74,0.03,0.01,-0.00,0.36,-0.75,9.78,0.03,0.00,-0.01,2.13,-0.85,9.51,3938.4331,10552.3574,0.35
883677060,0.04,0.01,-0.00,-0.01,-0.61,9.78,0.04,-0.00,0.00,0.19,-0.38,9.83,0.03,0.01,0.00,0.08,-0.60,9.78,0.04,0.00,0.00,0.38,-0.72,9.76,0.04,0.00,-0.01,2.16,-0.88,9.47,3938.4331,10552.3574,0.35
883681492,0.05,0.01,0.00,-0.05,-0.64,9.78,0.04,-0.00,-0.00,0.20,-0.35,9.81,0.04,0.01,0.00,0.09,-0.60,9.81,0.04,0.01,-0.00,0.34,-0.74,9.78,0.04,0.00,-0.01,2.15,-0.84,9.51,3938.4331,10552.3574,0.35
883685875,0.05,0.01,0.00,0.01,-0.62,9.78,0.05,0.00,0.00,0.19,-0.33,9.84,0.05,0.01,-0.00,0.11,-0.62,9.80,0.05,0.01,0.00,0.36,-0.75,9.78,0.05,0.01,-0.01,2.15,-0.82,9.56,3938.4331,10552.3574,0.35
883690210,0.06,0.01,-0.00,0.00,-0.62,9.85,0.05,0.00,-0.00,0.22,-0.37,9.88,0.05,0.01,-0.00,0.11,-0.58,9.83,0.05,0.01,-0.00,0.37,-0.69,9.82,0.06,0.01,-0.01,2.13,-0.80,9.60,3938.4331,10552.3574,0.35
883694531,0.06,0.01,0.00,0.00,-0.57,9.85,0.05,0.00,-0.00,0.21,-0.34,9.91,0.05,0.01,-0.00,0.10,-0.62,9.82,0.06,0.01,-0.00,0.38,-0.73,9.79,0.06,0.01,-0.01,2.13,-0.77,9.60,3938.4331,10552.3574,0.35
883698850,0.06,0.01,0.00,-0.03,-0.59,9.85,0.05,0.00,-0.00,0.24,-0.33,9.93,0.05,0.01,-0.00,0.11,-0.57,9.85,0.06,0.01,-0.00,0.43,-0.72,9.94,0.06,0.01,-0.01,2.18,-0.76,9.62,3938.4331,10552.3574,0.35
883703150,0.05,0.01,0.01,-0.03,-0.58,9.82,0.05,0.00,0.00,0.24,-0.32,9.84,0.05,0.01,0.00,0.07,-0.58,9.86,0.05,0.01,-0.00,0.35,-0.71,9.92,0.05,0.01,-0.01,2.17,-0.80,9.74,3938.4331,10552.3574,0.35
883707584,0.05,0.01,0.00,0.00,-0.54,9.85,0.04,0.00,-0.00,0.21,-0.30,9.92,0.05,0.01,-0.00,0.10,-0.57,9.89,0.05,0.01,-0.00,0.43,-0.70,9.94,0.05,0.00,-0.01,2.18,-0.78,9.73,3938.4331,10552.3574,0.35
883712056,0.05,0.01,0.00,-0.02,-0.54,9.88,0.04,0.00,-0.00,0.23,-0.30,9.94,0.04,0.01,-0.00,0.10,-0.54,9.89,0.04,0.01,-0.00,0.43,-0.68,9.94,0.04,0.00,-0.01,2.23,-0.74,9.71,3938.4331,10552.3574,0.35
883716468,0.04,0.01,0.00,0.03,-0.58,9.84,0.04,0.00,-0.00,0.23,-0.30,9.90,0.04,0.01,-0.00,0.11,-0.57,9.89,0.04,0.01,-0.00,0.44,-0.72,9.94,0.04,0.00,-0.01,2.22,-0.76,9.67,3938.4331,10552.3574,0.35
883720879,0.04,0.01,0.00,-0.02,-0.55,9.83,0.04,0.00,0.00,0.26,-0.33,9.85,0.04,0.01,-0.00,0.15,-0.57,9.87,0.04,0.01,-0.00,0.43,-0.72,9.91,0.04,0.00,-0.01,2.20,-0.76,9.63,3938.4331,10552.3574,0.35
883724916,0.04,0.01,0.00,-0.02,-0.57,9.81,0.03,0.00,-0.00,0.24,-0.33,9.89,0.04,0.01,-0.00,0.11,-0.59,9.86,0.04,0.01,-0.00,0.35,-0.70,9.87,0.04,0.00,-0.01,2.17,-0.74,9.64,3938.4331,10552.3574,0.35
883728972,0.04,0.01,0.00,-0.05,-0.60,9.85,0.03,0.00,0.00,0.24,-0.33,9.87,0.03,0.01,-0.00,0.06,-0.56,9.82,0.04,0.00,-0.00,0.44,-0.69,9.91,0.04,0.00,-0.01,2.18,-0.79,9.61,3938.4331,10552.3574,0.35
883734021,0.04,0.01,0.00,0.02,-0.59,9.84,0.03,0.00,0.00,0.21,-0.35,9.85,0.04,0.01,-0.00,0.11,-0.61,9.81,0.04,0.01,-0.00,0.42,-0.70,9.91,0.04,0.00,-0.01,2.20,-0.74,9.63,3938.4331,10552.3574,0.35
883738148,0.04,0.00,-0.00,0.02,-0.53,9.82,0.03,0.00,-0.00,0.27,-0.33,9.88,0.04,0.01,-0.00,0.14,-0.62,9.82,0.04,0.01,-0.00,0.39,-0.74,9.85,0.04,0.00,-0.01,2.18,-0.79,9.63,3938.4331,10552.3574,0.35
883742252,0.04,0.00,0.00,-0.01,-0.53,9.86,0.04,-0.00,-0.00,0.21,-0.30,9.84,0.03,0.01,0.00,0.12,-0.56,9.82,0.04,0.00,-0.00,0.42,-0.73,9.85,0.04,0.00,-0.01,2.19,-0.75,9.59,3938.4331,10552.3574,0.35
883746326,0.05,0.01,0.00,0.00,-0.55,9.80,0.04,-0.00,-0.00,0.19,-0.33,9.85,0.04,0.01,-0.00,0.09,-0.60,9.79,0.04,0.01,-0.00,0.40,-0.71,9.77,0.04,0.00,-0.01,2.19,-0.76,9.51,3938.4331,10552.3574,0.35
883750782,0.05,0.01,0.00,-0.02,-0.55,9.84,0.04,0.00,-0.00,0.24,-0.30,9.84,0.05,0.01,0.00,0.08,-0.60,9.81,0.05,0.01,-0.00,0.43,-0.72,9.81,0.05,0.01,-0.01,2.13,-0.79,9.52,3938.4331,10552.3574,0.35
883755206,0.06,0.01,0.00,-0.06,-0.56,9.85,0.05,0.00,-0.00,0.17,-0.32,9.80,0.05,0.01,-0.00,0.07,-0.55,9.79,0.06,0.01,-0.00,0.38,-0.68,9.79,0.05,0.00,-0.01,2.17,-0.80,9.53,3938.4331,10552.3574,0.35
883759488,0.07,0.01,-0.00,-0.06,-0.54,9.80,0.06,0.00,-0.00,0.18,-0.32,9.84,0.06,0.01,-0.00,0.10,-0.54,9.80,0.06,0.01,-0.00,0.36,-0.68,9.76,0.06,0.01,-0.01,2.15,-0.77,9.53,3938.4331,10552.3574,0.35
883763833,0.07,0.01,0.00,-0.04,-0.54,9.88,0.07,0.01,-0.00,0.24,-0.28,9.91,0.07,0.01,-0.00,0.10,-0.54,9.82,0.07,0.01,-0.00,0.40,-0.69,9.71,0.07,0.01,-0.02,2.12,-0.79,9.53,3938.4331,10552.3574,0.35
883769423,0.07,0.01,0.00,-0.06,-0.55,9.84,0.07,0.00,-0.00,0.20,-0.27,9.86,0.08,0.01,-0.00,0.05,-0.51,9.84,0.08,0.01,-0.00,0.35,-0.63,9.84,0.08,0.01,-0.02,2.13,-0.77,9.55,3938.4331,10552.3574,0.35
883773835,0.08,0.01,0.00,-0.06,-0.53,9.82,0.07,0.01,-0.00,0.20,-0.29,9.84,0.07,0.01,-0.00,0.03,-0.53,9.84,0.08,0.01,0.00,0.36,-0.67,9.94,0.08,0.01,-0.02,2.14,-0.71,9.65,3938.4331,10552.3574,0.35
883778247,0.08,0.01,-0.00,-0.08,-0.56,9.78,0.07,0.00,0.00,0.17,-0.32,9.84,0.07,0.01,-0.00,0.03,-0.53,9.87,0.07,0.01,-0.00,0.31,-0.64,9.92,0.08,0.01,-0.02,2.13,-0.69,9.68,3938.4331,10552.3574,0.35
883782670,0.07,0.01,0.00,-0.09,-0.49,9.86,0.07,0.00,0.00,0.16,-0.27,9.98,0.07,0.01,-0.00,0.00,-0.55,9.89,0.07,0.01,-0.00,0.30,-0.68,9.88,0.07,0.01,-0.02,2.11,-0.80,9.73,3938.4331,10552.3574,0.35
883787092,0.07,0.01,0.00,-0.12,-0.50,9.84,0.06,0.00,0.00,0.18,-0.26,9.95,0.07,0.01,-0.00,0.05,-0.51,9.85,0.07,0.01,-0.00,0.35,-0.64,9.93,0.07,0.01,-0.02,2.13,-0.74,9.72,3938.4331,10552.3574,0.35
883791495,0.06,0.01,0.00,-0.09,-0.53,9.83,0.06,0.01,0.00,0.16,-0.27,9.91,0.06,0.01,-0.00,0.02,-0.53,9.84,0.06,0.01,-0.00,0.32,-0.65,9.84,0.06,0.00,-0.01,2.13,-0.71,9.69,3938.4331,10552.3574,0.35
883795767,0.06,0.01,0.00,-0.08,-0.49,9.84,0.06,0.00,0.00,0.16,-0.31,9.89,0.06,0.01,0.00,0.03,-0.50,9.87,0.06,0.01,-0.00,0.31,-0.67,9.93,0.06,0.00,-0.01,2.15,-0.68,9.68,3938.4331,10552.3574,0.35
883800134,0.05,0.01,0.00,-0.06,-0.51,9.85,0.05,0.00,-0.00,0.18,-0.28,9.84,0.05,0.01,-0.00,0.06,-0.54,9.86,0.06,0.01,-0.00,0.31,-0.68,9.89,0.06,0.01,-0.01,2.13,-0.71,9.67,3938.4331,10552.3574,0.35
883804503,0.05,0.01,0.00,-0.07,-0.49,9.85,0.04,0.00,-0.00,0.18,-0.26,9.94,0.05,0.01,-0.00,0.05,-0.55,9.93,0.05,0.01,-0.01,0.35,-0.65,10.02,0.05,0.00,-0.01,2.16,-0.71,9.77,3938.4331,10552.3574,0.35
883808932,0.05,0.01,0.00,-0.01,-0.45,9.85,0.04,0.00,-0.00,0.17,-0.22,9.96,0.04,0.01,-0.00,0.09,-0.50,9.97,0.04,0.00,-0.00,0.37,-0.65,9.91,0.04,0.01,-0.01,2.16,-0.74,9.71,3938.4331,10552.3574,0.35
883813379,0.04,0.01,0.00,0.00,-0.50,9.85,0.04,0.00,-0.00,0.19,-0.25,9.85,0.04,0.01,0.00,0.08,-0.47,9.87,0.04,0.00,-0.00,0.38,-0.60,9.92,0.04,0.00,-0.01,2.18,-0.71,9.74,3938.4331,10552.3574,0.35
883817521,0.04,0.01,0.00,-0.02,-0.49,9.87,0.03,0.00,-0.00,0.23,-0.22,9.91,0.03,0.01,-0.00,0.09,-0.50,9.86,0.04,0.01,-0.00,0.41,-0.64,9.89,0.04,0.00,-0.01,2.18,-0.67,9.74,3938.4331,10552.3574,0.35
883821647,0.04,0.01,0.00,-0.04,-0.54,9.82,0.03,0.00,0.00,0.23,-0.26,9.83,0.03,0.01,-0.00,0.09,-0.48,9.82,0.04,0.01,-0.00,0.40,-0.66,9.88,0.04,0.00,-0.01,2.15,-0.73,9.57,3938.4331,10552.3574,0.35
883830472,0.05,0.01,0.00,0.03,-0.51,9.80,0.04,0.00,-0.00,0.20,-0.30,9.92,0.04,0.01,-0.00,0.07,-0.47,9.84,0.04,0.00,-0.00,0.34,-0.65,9.77,0.04,0.01,-0.01,2.13,-0.76,9.62,3938.4331,10552.3574,0.35
883834552,0.05,0.01,0.00,0.02,-0.52,9.79,0.04,0.00,-0.00,0.21,-0.30,9.81,0.04,0.01,-0.00,0.07,-0.52,9.84,0.04,0.01,-0.00,0.40,-0.65,9.85,0.05,0.00,-0.01,2.15,-0.71,9.64,3938.4331,10552.3574,0.35
883838607,0.05,0.00,0.00,-0.07,-0.51,9.89,0.04,0.00,0.00,0.19,-0.24,9.96,0.04,0.01,0.00,0.09,-0.49,9.96,0.05,0.01,-0.00,0.40,-0.65,9.88,0.04,0.00,-0.01,2.17,-0.71,9.63,3938.4331,10552.3574,0.35
883842705,0.04,0.01,0.00,-0.04,-0.53,9.85,0.04,0.00,-0.00,0.22,-0.27,9.96,0.04,0.01,-0.00,0.12,-0.48,9.87,0.04,0.01,-0.00,0.36,-0.60,9.90,0.04,0.00,-0.01,2.11,-0.69,9.74,3938.4331,10552.3574,0.35
883847183,0.04,0.01,0.00,0.00,-0.50,9.84,0.04,0.00,-0.00,0.20,-0.27,9.88,0.04,0.01,-0.00,0.08,-0.53,9.83,0.04,0.01,0.00,0.42,-0.64,9.90,0.04,0.00,-0.01,2.17,-0.71,9.61,3938.4331,10552.3574,0.35
883851657,0.05,0.00,0.00,-0.04,-0.50,9.83,0.04,0.00,-0.00,0.22,-0.25,9.87,0.04,0.01,-0.00,0.07,-0.53,9.89,0.04,0.00,-0.00,0.37,-0.64,9.90,0.04,0.00,-0.01,2.19,-0.65,9.62,3938.4331,10552.3574,0.35
883856093,0.04,0.01,0.00,-0.03,-0.51,9.84,0.04,0.00,-0.00,0.21,-0.27,9.91,0.04,0.01,-0.00,0.10,-0.53,9.85,0.04,0.01,-0.00,0.37,-0.63,9.89,0.05,0.01,-0.01,2.18,-0.70,9.66,3938.4331,10552.3574,0.35
883860508,0.04,0.00,0.00,-0.03,-0.50,9.85,0.04,0.00,-0.00,0.19,-0.25,9.89,0.04,0.01,-0.00,0.06,-0.52,9.90,0.04,0.01,-0.00,0.39,-0.63,9.95,0.04,0.00,-0.01,2.18,-0.71,9.63,3938.4331,10552.3574,0.35
883864865,0.04,0.01,0.00,-0.04,-0.49,9.89,0.04,0.00,0.00,0.24,-0.23,9.89,0.04,0.01,-0.00,0.05,-0.52,9.86,0.04,0.01,-0.00,0.39,-0.63,9.96,0.04,0.00,-0.01,2.13,-0.69,9.70,3938.4331,10552.3574,0.35
883869167,0.04,0.01,0.00,-0.04,-0.48,9.83,0.03,0.01,0.00,0.19,-0.22,9.90,0.03,0.01,-0.00,0.06,-0.51,9.86,0.04,0.01,-0.00,0.32,-0.56,9.93,0.04,0.00,-0.01,2.14,-0.68,9.62,3938.4331,10552.3574,0.35
883873498,0.04,0.01,0.00,-0.06,-0.48,9.85,0.04,0.00,0.00,0.17,-0.24,9.92,0.03,0.01,-0.00,0.06,-0.51,9.83,0.04,0.01,-0.00,0.36,-0.62,9.88,0.04,0.00,-0.01,2.13,-0.67,9.58,3938.4331,10552.3574,0.35
883877876,0.04,0.01,0.00,-0.06,-0.46,9.84,0.03,0.00,0.00,0.21,-0.21,9.87,0.03,0.01,-0.00,0.01,-0.49,9.86,0.04,0.01,-0.01,0.33,-0.63,9.89,0.04,0.00,-0.01,2.15,-0.71,9.63,3938.4331,10552.3574,0.35
883882271,0.04,0.01,-0.00,-0.04,-0.49,9.83,0.03,0.00,-0.00,0.17,-0.28,9.89,0.03,0.01,-0.00,0.03,-0.50,9.82,0.04,0.00,-0.00,0.35,-0.63,9.88,0.04,0.00,-0.01,2.15,-0.67,9.67,3938.4331,10552.3574,0.35
883886716,0.04,0.00,0.00,-0.06,-0.49,9.85,0.03,0.00,-0.00,0.20,-0.24,9.88,0.03,0.01,-0.00,0.07,-0.49,9.86,0.04,0.01,-0.00,0.39,-0.60,9.92,0.04,0.00,-0.01,2.15,-0.70,9.65,3938.4331,10552.3574,0.35
883891205,0.03,0.00,-0.00,-0.04,-0.54,9.85,0.03,0.00,-0.00,0.17,-0.24,9.93,0.03,0.01,0.00,0.10,-0.49,9.85,0.03,0.01,-0.00,0.38,-0.60,9.92,0.03,0.00,-0.01,2.18,-0.69,9.63,3938.4331,10552.3574,0.35
883895559,0.03,0.00,-0.00,-0.01,-0.48,9.81,0.02,0.00,-0.00,0.21,-0.23,9.84,0.03,0.01,-0.00,0.03,-0.48,9.82,0.03,0.00,-0.00,0.37,-0.62,9.95,0.03,0.00,-0.01,2.16,-0.65,9.68,3938.4331,10552.3574,0.35
883899861,0.03,0.00,0.00,-0.02,-0.48,9.81,0.02,0.00,0.00,0.20,-0.27,9.87,0.02,0.01,-0.00,0.07,-0.49,9.87,0.03,0.00,-0.00,0.39,-0.61,9.98,0.03,0.00,-0.01,2.18,-0.66,9.73,3938.4331,10552.3574,0.35
883905655,0.02,0.00,-0.00,-0.03,-0.48,9.85,0.02,0.00,0.00,0.21,-0.23,9.92,0.02,0.01,0.00,0.10,-0.47,9.82,0.02,0.00,-0.00,0.39,-0.61,9.92,0.02,0.00,-0.00,2.15,-0.69,9.62,3938.4331,10552.3574,0.35
883910049,0.02,0.00,0.00,-0.05,-0.48,9.83,0.02,0.00,-0.00,0.17,-0.22,9.86,0.02,0.01,-0.00,0.03,-0.50,9.87,0.02,0.00,-0.00,0.35,-0.60,9.92,0.02,-0.00,-0.01,2.14,-0.69,9.68,3938.4331,10552.3574,0.35
883914173,0.02,0.00,0.00,-0.05,-0.51,9.90,0.02,0.00,0.00,0.16,-0.23,9.92,0.02,0.00,-0.00,0.07,-0.47,9.87,0.02,0.00,-0.00,0.36,-0.61,9.81,0.02,-0.00,-0.00,2.15,-0.66,9.67,3938.4331,10552.3574,0.35
883918351,0.02,0.00,0.00,-0.04,-0.52,9.80,0.02,0.01,0.00,0.21,-0.26,9.86,0.02,0.01,-0.00,0.08,-0.49,9.87,0.02,0.00,-0.00,0.37,-0.60,9.87,0.02,-0.00,-0.01,2.14,-0.71,9.59,3938.4331,10552.3574,0.35
883923543,0.03,0.00,0.00,-0.10,-0.52,9.83,0.02,-0.00,0.00,0.17,-0.23,9.88,0.02,0.01,-0.00,0.03,-0.46,9.79,0.02,0.00,-0.00,0.36,-0.63,9.89,0.02,-0.00,-0.01,2.14,-0.69,9.60,3938.4331,10552.3574,0.35
883927660,0.03,0.00,-0.00,-0.02,-0.47,9.83,0.02,0.00,0.00,0.24,-0.25,9.84,0.02,0.00,-0.00,0.03,-0.53,9.78,0.03,0.01,-0.00,0.37,-0.65,9.83,0.03,0.00,-0.01,2.15,-0.70,9.55,3938.4331,10552.3574,0.35
883931659,0.03,0.00,0.00,-0.06,-0.48,9.83,0.03,0.00,-0.00,0.19,-0.20,9.83,0.02,0.01,-0.00,0.05,-0.49,9.83,0.03,0.00,-0.00,0.34,-0.60,9.85,0.03,0.00,-0.01,2.13,-0.69,9.57,3938.4331,10552.3574,0.35
883935668,0.03,0.00,0.00,-0.02,-0.47,9.78,0.02,0.00,-0.00,0.21,-0.25,9.86,0.02,0.01,-0.00,0.09,-0.50,9.83,0.03,0.01,-0.00,0.39,-0.60,9.83,0.03,0.00,-0.01,2.16,-0.68,9.61,3938.4331,10552.3574,0.35
883940030,0.03,0.00,0.00,-0.04,-0.46,9.82,0.03,0.00,0.00,0.21,-0.22,9.86,0.03,0.01,-0.00,0.05,-0.50,9.85,0.03,0.01,-0.00,0.38,-0.63,9.94,0.03,0.00,-0.01,2.17,-0.66,9.59,3938.4331,10552.3574,0.35
883944454,0.03,0.00,0.00,-0.03,-0.45,9.85,0.03,0.00,-0.00,0.19,-0.22,9.89,0.03,0.01,0.00,0.09,-0.49,9.85,0.03,0.01,-0.00,0.38,-0.62,9.89,0.03,0.00,-0.01,2.15,-0.69,9.63,3938.4331,10552.3574,0.35
883948937,0.03,0.00,0.00,-0.03,-0.46,9.81,0.03,0.00,-0.00,0.21,-0.26,9.92,0.03,0.01,-0.00,0.05,-0.43,9.84,0.03,0.01,-0.00,0.37,-0.60,9.88,0.03,0.00,-0.01,2.16,-0.71,9.64,3938.4331,10552.3574,0.35
883953369,0.03,0.00,-0.00,-0.04,-0.44,9.84,0.03,0.00,-0.00,0.20,-0.21,9.91,0.03,0.01,-0.00,0.09,-0.48,9.89,0.03,0.00,-0.00,0.36,-0.57,9.89,0.03,0.00,-0.01,2.18,-0.63,9.65,3938.4331,10552.3574,0.35
883957803,0.03,0.00,0.00,-0.03,-0.44,9.85,0.02,0.00,0.00,0.23,-0.18,9.87,0.02,0.01,0.00,0.07,-0.49,9.89,0.03,0.01,-0.00,0.37,-0.59,9.90,0.03,0.00,-0.01,2.19,-0.65,9.68,3938.4331,10552.3574,0.35
883962252,0.02,0.00,-0.00,-0.01,-0.45,9.85,0.02,0.00,0.00,0.21,-0.17,9.86,0.02,0.01,-0.00,0.08,-0.50,9.89,0.02,0.00,-0.00,0.38,-0.60,9.89,0.02,0.00,-0.00,2.23,-0.66,9.70,3938.4331,10552.3574,0.35
883966592,0.02,0.00,0.00,-0.01,-0.46,9.83,0.02,0.00,-0.00,0.20,-0.19,9.91,0.02,0.01,-0.00,0.07,-0.43,9.88,0.02,0.00,0.00,0.40,-0.58,9.94,0.02,-0.00,-0.00,2.17,-0.64,9.72,3938.4331,10552.3574,0.35
883970880,0.02,0.00,0.00,-0.01,-0.45,9.82,0.01,0.00,0.00,0.19,-0.19,9.89,0.01,0.01,0.00,0.09,-0.50,9.89,0.01,0.01,-0.01,0.40,-0.57,9.93,0.02,-0.00,-0.00,2.16,-0.67,9.71,3938.4331,10552.3574,0.35
883975216,0.02,0.00,-0.00,-0.02,-0.47,9.85,0.01,0.00,-0.00,0.19,-0.24,9.93,0.01,0.00,-0.00,0.09,-0.44,9.88,0.01,0.00,-0.00,0.40,-0.59,9.95,0.02,-0.00,-0.01,2.19,-0.68,9.67,3938.4331,10552.3574,0.35
883979612,0.01,0.00,0.00,-0.04,-0.47,9.81,0.01,-0.00,0.00,0.21,-0.20,9.88,0.01,0.00,-0.00,0.09,-0.49,9.89,0.01,0.00,-0.00,0.38,-0.58,9.91,0.01,-0.00,-0.00,2.13,-0.65,9.63,3938.4331,10552.3574,0.35
883984095,0.01,0.00,0.00,-0.02,-0.41,9.81,0.01,0.00,0.00,0.19,-0.17,9.86,0.01,0.00,-0.00,0.07,-0.41,9.89,0.01,0.00,0.00,0.37,-0.58,9.90,0.01,-0.00,-0.00,2.16,-0.67,9.67,3938.4331,10552.3574,0.35
883988539,0.01,-0.00,-0.00,-0.06,-0.49,9.84,0.01,0.00,-0.00,0.18,-0.24,9.84,0.01,0.01,-0.00,0.09,-0.45,9.86,0.01,0.00,-0.00,0.38,-0.61,9.93,0.01,-0.00,-0.01,2.12,-0.69,9.71,3938.4331,10552.3574,0.35
883992989,0.01,0.00,-0.00,-0.06,-0.48,9.85,0.01,-0.00,-0.00,0.19,-0.20,9.89,0.01,0.00,-0.00,0.07,-0.43,9.88,0.01,0.00,0.00,0.37,-0.59,9.86,0.01,-0.00,-0.00,2.13,-0.70,9.65,3938.4331,10552.3574,0.35
883997435,0.01,0.00,0.00,-0.02,-0.49,9.85,0.01,-0.00,0.00,0.18,-0.21,9.89,0.00,0.00,0.00,0.03,-0.45,9.86,0.01,0.00,0.00,0.31,-0.57,9.88,0.01,-0.00,-0.00,2.13,-0.66,9.61,3938.4331,10552.3574,0.35
884001561,0.01,0.00,0.00,-0.04,-0.45,9.84,0.00,0.00,0.00,0.18,-0.23,9.89,0.00,0.00,-0.00,0.10,-0.45,9.82,0.01,0.00,-0.00,0.38,-0.60,9.91,0.01,-0.00,-0.00,2.13,-0.68,9.69,3938.4331,10552.3574,0.35
884005689,0.01,0.00,0.00,-0.06,-0.45,9.83,0.00,-0.00,0.00,0.21,-0.21,9.86,0.01,0.00,-0.00,0.09,-0.49,9.84,0.01,0.00,-0.00,0.36,-0.60,9.93,0.01,-0.00,-0.01,2.18,-0.71,9.65,3938.4331,10552.3574,0.35
884009747,0.01,-0.00,0.00,-0.06,-0.44,9.78,0.00,-0.00,0.00,0.19,-0.21,9.92,0.00,0.00,-0.00,0.08,-0.50,9.84,0.00,0.00,-0.00,0.39,-0.62,9.93,0.01,-0.00,-0.00,2.17,-0.67,9.66,3938.4331,10552.3574,0.35
884014923,0.00,-0.00,0.00,0.00,-0.42,9.82,-0.00,-0.00,0.00,0.21,-0.17,9.91,-0.00,0.00,-0.00,0.10,-0.47,9.91,0.00,0.00,0.00,0.38,-0.62,9.90,0.00,-0.00,-0.00,2.17,-0.64,9.65,3938.4331,10552.3574,0.35
884019092,-0.00,-0.00,0.00,-0.02,-0.47,9.83,-0.01,-0.00,-0.00,0.23,-0.21,9.91,-0.01,0.00,-0.00,0.10,-0.48,9.88,-0.00,0.00,0.00,0.41,-0.56,9.94,0.00,-0.00,-0.00,2.21,-0.64,9.68,3938.4331,10552.3574,0.35
884023241,-0.01,-0.00,0.00,-0.03,-0.40,9.83,-0.01,-0.00,0.00,0.20,-0.15,9.92,-0.01,0.00,-0.00,0.06,-0.49,9.92,-0.01,-0.00,-0.00,0.39,-0.55,9.93,-0.00,-0.00,-0.00,2.19,-0.64,9.69,3938.4331,10552.3574,0.35
884027722,-0.01,-0.00,-0.00,-0.02,-0.44,9.82,-0.01,-0.01,0.00,0.21,-0.20,9.93,-0.01,0.00,-0.00,0.08,-0.54,9.88,-0.01,-0.00,-0.00,0.44,-0.59,9.94,-0.01,-0.01,0.00,2.19,-0.63,9.73,3938.4331,10552.3574,0.35
884032073,-0.02,-0.00,-0.00,-0.02,-0.46,9.85,-0.02,-0.01,0.00,0.24,-0.21,9.94,-0.02,0.00,-0.00,0.10,-0.49,9.91,-0.02,-0.00,0.00,0.39,-0.60,9.94,-0.01,-0.00,0.00,2.22,-0.66,9.72,3938.4331,10552.3574,0.35
884036371,-0.03,-0.01,-0.00,0.02,-0.47,9.83,-0.03,-0.01,0.00,0.26,-0.21,9.97,-0.03,0.00,0.00,0.09,-0.49,9.92,-0.02,-0.00,0.00,0.41,-0.59,9.97,-0.02,-0.01,0.00,2.19,-0.64,9.76,3938.4331,10552.3574,0.35
884042026,-0.03,-0.01,0.00,0.02,-0.45,9.85,-0.03,-0.01,-0.00,0.23,-0.21,9.88,-0.03,-0.00,-0.00,0.11,-0.41,9.87,-0.03,-0.00,0.00,0.40,-0.57,9.91,-0.03,-0.01,0.00,2.23,-0.62,9.76,3938.4331,10552.3574,0.35
884046407,-0.03,-0.01,0.00,0.02,-0.48,9.87,-0.04,-0.01,0.00,0.24,-0.22,9.90,-0.04,-0.00,-0.00,0.12,-0.42,9.85,-0.04,-0.00,0.00,0.41,-0.57,9.87,-0.03,-0.01,0.00,2.20,-0.70,9.71,3938.4331,10552.3574,0.35
884050789,-0.04,-0.00,0.00,-0.01,-0.48,9.83,-0.04,-0.01,0.00,0.22,-0.25,9.88,-0.04,-0.00,-0.00,0.11,-0.49,9.81,-0.03,-0.01,0.00,0.42,-0.61,9.87,-0.03,-0.01,0.01,2.20,-0.63,9.59,3938.4331,10552.3574,0.35
884055245,-0.04,-0.01,0.00,0.01,-0.49,9.88,-0.03,-0.01,0.00,0.24,-0.24,9.87,-0.03,-0.00,-0.00,0.11,-0.54,9.80,-0.03,-0.00,-0.00,0.43,-0.63,9.83,-0.03,-0.01,0.01,2.19,-0.68,9.57,3938.4331,10552.3574,0.35
884059681,-0.03,-0.01,0.00,0.00,-0.48,9.81,-0.04,-0.01,0.00,0.23,-0.24,9.83,-0.03,-0.00,-0.00,0.11,-0.50,9.80,-0.03,-0.00,0.00,0.42,-0.60,9.87,-0.02,-0.01,0.01,2.21,-0.66,9.56,3938.4331,10552.3574,0.35
884064130,-0.03,-0.00,0.00,0.00,-0.48,9.83,-0.03,-0.01,0.00,0.23,-0.28,9.88,-0.03,-0.00,-0.01,0.09,-0.54,9.82,-0.03,-0.00,0.00,0.41,-0.60,9.87,-0.02,-0.01,0.01,2.18,-0.65,9.61,3938.4331,10552.3574,0.35
884068440,-0.03,-0.00,0.00,-0.06,-0.47,9.85,-0.03,-0.01,-0.00,0.24,-0.24,9.87,-0.03,-0.00,-0.00,0.07,-0.48,9.84,-0.03,-0.00,0.00,0.43,-0.61,9.88,-0.02,-0.01,0.00,2.16,-0.67,9.64,3938.4331,10552.3574,0.35
884072724,-0.03,-0.00,0.00,0.02,-0.48,9.88,-0.03,-0.01,0.00,0.23,-0.25,9.89,-0.03,-0.00,-0.00,0.10,-0.47,9.81,-0.03,-0.00,0.00,0.36,-0.61,9.89,-0.02,-0.01,0.00,2.19,-0.67,9.58,3938.4331,10552.3574,0.35
884077091,-0.02,-0.00,-0.00,-0.06,-0.42,9.82,-0.02,-0.01,0.00,0.21,-0.19,9.87,-0.03,0.00,-0.00,0.08,-0.47,9.83,-0.03,-0.00,0.00,0.33,-0.63,9.83,-0.02,-0.01,0.00,2.11,-0.71,9.62,3938.4331,10552.3574,0.35
884081476,-0.02,-0.00,0.00,-0.06,-0.50,9.87,-0.03,-0.01,0.00,0.17,-0.23,9.88,-0.03,0.00,-0.00,0.06,-0.53,9.82,-0.03,-0.00,-0.00,0.36,-0.63,9.84,-0.02,-0.01,0.00,2.10,-0.70,9.58,3938.4331,10552.3574,0.35
884085921,-0.02,-0.00,-0.00,-0.05,-0.50,9.84,-0.03,-0.01,0.00,0.18,-0.22,9.90,-0.02,-0.00,-0.00,0.07,-0.52,9.81,-0.02,-0.00,0.00,0.35,-0.61,9.87,-0.02,-0.01,0.00,2.16,-0.69,9.61,3938.4331,10552.3574,0.35
884090352,-0.02,-0.00,-0.00,-0.04,-0.47,9.77,-0.03,-0.01,-0.00,0.18,-0.21,9.83,-0.03,0.00,-0.00,0.04,-0.48,9.82,-0.02,-0.00,-0.00,0.35,-0.62,9.96,-0.02,-0.01,0.00,2.11,-0.66,9.59,3938.4331,10552.3574,0.35
884094472,-0.02,-0.00,0.00,-0.05,-0.47,9.83,-0.02,-0.01,-0.00,0.22,-0.23,9.87,-0.03,-0.00,-0.00,0.06,-0.45,9.89,-0.02,-0.00,0.00,0.39,-0.60,9.92,-0.02,-0.01,0.00,2.19,-0.64,9.66,3938.4331,10552.3574,0.35
884098666,-0.03,-0.00,-0.00,-0.05,-0.45,9.80,-0.03,-0.01,0.00,0.17,-0.25,9.90,-0.03,0.00,-0.00,0.08,-0.46,9.87,-0.02,-0.00,0.00,0.37,-0.61,9.89,-0.02,-0.01,0.00,2.16,-0.66,9.71,3938.4331,10552.3574,0.35
884103852,-0.03,-0.00,-0.00,-0.04,-0.49,9.86,-0.03,-0.01,0.00,0.19,-0.26,9.90,-0.03,-0.00,-0.00,0.07,-0.49,9.90,-0.03,-0.00,-0.00,0.36,-0.60,9.93,-0.02,-0.01,0.01,2.11,-0.67,9.65,3938.4331,10552.3574,0.35
884107927,-0.03,-0.00,-0.00,-0.02,-0.49,9.86,-0.03,-0.01,0.00,0.17,-0.27,9.86,-0.03,-0.00,-0.00,0.08,-0.52,9.84,-0.03,-0.00,-0.00,0.35,-0.61,9.91,-0.02,-0.01,0.01,2.16,-0.70,9.61,3938.4331,10552.3574,0.35
884111947,-0.03,-0.00,-0.01,-0.05,-0.50,9.84,-0.03,-0.01,0.00,0.20,-0.24,9.83,-0.03,-0.00,-0.00,0.08,-0.49,9.82,-0.03,-0.00,0.00,0.34,-0.63,9.91,-0.02,-0.00,0.01,2.16,-0.75,9.65,3938.4331,10552.3574,0.35
884116019,-0.03,-0.00,-0.00,-0.05,-0.47,9.85,-0.03,-0.01,0.00,0.21,-0.25,9.91,-0.03,-0.00,-0.00,0.10,-0.52,9.77,-0.03,-0.00,-0.00,0.40,-0.66,9.84,-0.02,-0.01,0.00,2.14,-0.71,9.65,3938.4331,10552.3574,0.35
884120500,-0.03,-0.01,-0.00,-0.01,-0.50,9.85,-0.03,-0.01,0.00,0.18,-0.31,9.88,-0.03,-0.00,-0.00,0.11,-0.49,9.84,-0.02,-0.00,0.00,0.41,-0.64,9.96,-0.02,-0.01,0.01,2.16,-0.67,9.67,3938.4331,10552.3574,0.35
884124960,-0.03,-0.00,0.00,-0.02,-0.44,9.82,-0.03,-0.01,0.00,0.23,-0.23,9.88,-0.03,-0.00,0.00,0.13,-0.49,9.82,-0.03,-0.00,0.00,0.39,-0.64,9.86,-0.02,-0.00,0.00,2.18,-0.76,9.70,3938.4331,10552.3574,0.35
884129412,-0.03,-0.00,0.00,0.02,-0.50,9.84,-0.03,-0.01,-0.00,0.21,-0.25,9.88,-0.03,-0.00,-0.00,0.11,-0.51,9.80,-0.03,-0.00,-0.00,0.38,-0.63,9.98,-0.02,-0.01,0.00,2.17,-0.73,9.64,3938.4331,10552.3574,0.35
884133805,-0.03,-0.01,0.00,-0.02,-0.49,9.81,-0.03,-0.01,0.00,0.25,-0.22,9.86,-0.04,-0.00,-0.00,0.07,-0.48,9.80,-0.03,-0.00,0.00,0.39,-0.60,9.89,-0.03,-0.01,0.00,2.18,-0.69,9.66,3938.4331,10552.3574,0.35
884138083,-0.03,-0.01,-0.00,0.02,-0.48,9.93,-0.03,-0.01,-0.00,0.22,-0.28,9.97,-0.03,-0.00,-0.00,0.13,-0.53,9.78,-0.03,-0.00,0.00,0.39,-0.62,9.90,-0.03,-0.01,0.00,2.16,-0.73,9.63,3938.4331,10552.3574,0.35
884142464,-0.03,-0.00,-0.00,-0.01,-0.53,9.83,-0.03,-0.01,0.00,0.24,-0.30,9.84,-0.03,-0.00,-0.00,0.11,-0.52,9.83,-0.03,-0.00,0.00,0.42,-0.66,9.86,-0.03,-0.01,0.00,2.18,-0.71,9.57,3938.4331,10552.3574,0.35
884146814,-0.02,-0.01,-0.00,-0.03,-0.48,9.84,-0.03,-0.00,-0.00,0.22,-0.27,9.82,-0.03,-0.00,-0.00,0.06,-0.52,9.79,-0.02,-0.00,0.00,0.40,-0.65,9.86,-0.02,-0.01,0.00,2.16,-0.72,9.54,3938.4331,10552.3574,0.35
884151208,-0.02,-0.00,-0.00,0.00,-0.52,9.80,-0.02,-0.01,-0.00,0.26,-0.29,9.83,-0.02,-0.00,-0.00,0.10,-0.53,9.80,-0.02,0.00,-0.00,0.38,-0.67,9.86,-0.02,-0.01,0.00,2.14,-0.74,9.53,3938.4331,10552.3574,0.35
884155615,-0.01,-0.00,-0.00,-0.01,-0.48,9.85,-0.02,-0.00,0.00,0.21,-0.26,9.86,-0.02,0.00,-0.00,0.07,-0.50,9.78,-0.02,0.00,0.00,0.35,-0.68,9.77,-0.01,-0.01,0.00,2.21,-0.74,9.52,3938.4331,10552.3574,0.35
884160001,-0.01,-0.00,0.00,-0.06,-0.54,9.85,-0.01,-0.01,0.00,0.20,-0.26,9.84,-0.01,-0.00,-0.00,0.10,-0.53,9.78,-0.01,-0.00,-0.00,0.34,-0.69,9.89,-0.01,-0.01,-0.00,2.14,-0.69,9.59,3938.4331,10552.3574,0.35
884164460,-0.00,0.00,0.00,-0.02,-0.53,9.87,-0.01,-0.00,0.00,0.21,-0.25,9.83,-0.01,0.00,-0.00,0.08,-0.52,9.84,-0.01,-0.00,-0.00,0.37,-0.64,9.80,-0.00,-0.00,-0.00,2.14,-0.72,9.56,3938.4331,10552.3574,0.35
884168918,0.00,-0.00,0.00,-0.04,-0.51,9.81,-0.00,-0.00,0.00,0.22,-0.27,9.87,-0.00,-0.00,-0.00,0.04,-0.54,9.82,-0.00,0.00,-0.00,0.39,-0.67,9.81,0.00,-0.00,-0.00,2.14,-0.72,9.57,3938.4331,10552.3574,0.35
884173272,0.00,0.00,-0.00,-0.04,-0.47,9.88,-0.00,-0.00,0.00,0.17,-0.25,9.87,0.00,-0.00,-0.00,0.05,-0.55,9.78,0.00,0.00,0.00,0.36,-0.64,9.90,0.00,-0.00,0.00,2.14,-0.73,9.57,3938.4331,10552.3574,0.35
884178847,0.00,0.00,-0.00,-0.06,-0.49,9.81,0.00,-0.00,0.00,0.19,-0.26,9.86,0.00,0.00,-0.00,0.09,-0.54,9.81,0.00,0.00,-0.00,0.34,-0.62,9.88,0.00,-0.00,-0.00,2.14,-0.72,9.62,3938.4331,10552.3574,0.35
884182883,0.01,0.00,0.00,-0.06,-0.49,9.83,0.00,-0.00,0.00,0.16,-0.27,9.89,0.00,0.00,-0.00,0.05,-0.52,9.83,0.00,0.00,-0.00,0.35,-0.60,9.90,0.01,-0.00,-0.00,2.12,-0.69,9.64,3938.4331,10552.3574,0.35
884187033,0.01,0.00,0.00,-0.06,-0.49,9.84,0.00,-0.00,-0.00,0.19,-0.28,9.88,0.00,0.00,-0.00,0.03,-0.52,9.85,0.00,0.00,0.00,0.36,-0.64,9.89,0.01,-0.00,-0.00,2.13,-0.71,9.66,3938.4331,10552.3574,0.35
884195879,0.01,0.00,-0.00,-0.06,-0.50,9.87,0.01,-0.00,0.00,0.19,-0.21,9.86,0.00,0.00,-0.00,0.07,-0.47,9.86,0.00,0.00,0.00,0.40,-0.63,9.87,0.01,-0.00,-0.00,2.12,-0.67,9.64,3938.4331,10552.3574,0.35
884200025,0.01,0.00,0.00,-0.04,-0.49,9.86,0.00,-0.00,0.00,0.24,-0.29,9.87,0.00,0.00,-0.00,0.04,-0.51,9.83,0.00,0.00,-0.00,0.36,-0.62,9.86,0.01,-0.00,-0.00,2.14,-0.73,9.63,3938.4331,10552.3574,0.35
884204049,0.01,0.00,0.00,-0.04,-0.49,9.85,0.00,-0.00,0.00,0.18,-0.21,9.89,0.00,0.00,-0.00,0.04,-0.48,9.84,0.00,0.00,-0.00,0.37,-0.65,9.89,0.01,-0.00,-0.00,2.13,-0.71,9.68,3938.4331,10552.3574,0.35
884208034,0.01,0.00,-0.00,-0.04,-0.50,9.83,0.00,-0.00,-0.00,0.20,-0.25,9.87,0.00,0.00,-0.00,0.04,-0.48,9.88,0.00,0.00,-0.00,0.29,-0.61,9.93,0.01,-0.00,0.00,2.13,-0.71,9.57,3938.4331,10552.3574,0.35
884212382,0.01,0.00,0.00,-0.03,-0.48,9.80,0.00,-0.00,0.00,0.18,-0.27,9.88,0.00,0.00,-0.00,0.05,-0.52,9.84,0.00,0.00,0.00,0.38,-0.64,9.88,0.01,-0.00,-0.00,2.14,-0.70,9.63,3938.4331,10552.3574,0.35
884216754,0.01,0.00,0.00,-0.06,-0.50,9.85,0.00,-0.00,-0.00,0.14,-0.25,9.91,0.00,0.00,-0.00,0.06,-0.50,9.82,0.00,0.00,-0.00,0.36,-0.63,9.87,0.01,-0.00,-0.00,2.15,-0.71,9.61,3938.4331,10552.3574,0.35
884221181,0.01,-0.00,-0.00,-0.03,-0.46,9.86,0.00,-0.00,0.00,0.21,-0.25,9.88,0.00,0.01,-0.00,0.05,-0.52,9.81,0.00,0.00,-0.00,0.36,-0.61,9.91,0.01,-0.00,-0.00,2.16,-0.75,9.65,3938.4331,10552.3574,0.35
884225607,0.01,0.00,-0.00,-0.06,-0.51,9.82,-0.00,-0.00,-0.00,0.18,-0.24,9.85,0.00,0.00,-0.00,0.05,-0.53,9.83,0.00,0.00,-0.00,0.34,-0.60,9.89,0.01,-0.00,-0.00,2.17,-0.71,9.63,3938.4331,10552.3574,0.35
884230014,0.01,0.00,0.00,-0.05,-0.48,9.85,-0.00,-0.00,0.00,0.19,-0.22,9.87,0.00,0.00,-0.00,0.04,-0.50,9.86,0.00,0.00,-0.00,0.39,-0.61,9.90,0.01,-0.00,-0.00,2.16,-0.69,9.68,3938.4331,10552.3574,0.35
884234483,0.00,0.00,-0.00,-0.04,-0.47,9.85,-0.00,-0.00,0.00,0.24,-0.21,9.88,-0.00,0.00,-0.00,0.07,-0.49,9.88,0.00,0.00,0.00,0.33,-0.63,9.86,0.01,-0.00,-0.00,2.18,-0.71,9.61,3938.4331,10552.3574,0.35
884238875,0.00,0.00,0.00,-0.04,-0.48,9.87,0.00,-0.00,0.00,0.23,-0.24,9.85,0.00,0.00,-0.00,0.06,-0.48,9.90,0.00,0.00,-0.00,0.39,-0.62,9.90,0.00,-0.00,-0.00,2.18,-0.69,9.60,3938.4331,10552.3574,0.35
884243180,0.00,0.00,0.00,0.02,-0.51,9.81,-0.00,-0.00,-0.00,0.17,-0.26,9.84,-0.00,0.00,-0.00,0.07,-0.49,9.84,0.00,0.00,-0.00,0.43,-0.64,9.86,0.00,-0.00,-0.00,2.18,-0.71,9.66,3938.4331,10552.3574,0.35
884247448,0.00,0.00,0.00,-0.03,-0.48,9.83,0.00,-0.00,0.00,0.25,-0.25,9.89,-0.00,0.00,-0.00,0.11,-0.49,9.82,0.00,0.00,0.00,0.41,-0.64,9.89,0.01,-0.00,-0.00,2.19,-0.67,9.58,3938.4331,10552.3574,0.35
884251739,0.00,-0.00,0.00,-0.01,-0.48,9.83,0.00,-0.00,0.00,0.27,-0.20,9.89,-0.00,0.00,-0.00,0.10,-0.51,9.85,0.00,0.00,-0.00,0.40,-0.61,9.89,0.01,-0.00,-0.00,2.19,-0.71,9.61,3938.4331,10552.3574,0.35
884256170,0.00,-0.00,0.00,0.00,-0.50,9.83,-0.00,-0.00,-0.00,0.24,-0.21,9.85,-0.00,0.00,-0.00,0.09,-0.50,9.84,0.00,0.00,-0.00,0.44,-0.63,9.93,0.00,-0.00,-0.00,2.20,-0.72,9.62,3938.4331,10552.3574,0.35
884260924,0.01,-0.00,0.00,0.00,-0.51,9.85,0.00,-0.00,0.00,0.24,-0.21,9.86,0.00,0.00,-0.00,0.11,-0.51,9.82,0.00,0.00,-0.00,0.43,-0.60,9.91,0.01,-0.00,0.00,2.22,-0.74,9.63,3938.4331,10552.3574,0.35
884265699,0.00,0.00,0.00,-0.03,-0.48,9.81,-0.00,-0.00,-0.00,0.24,-0.27,9.92,0.00,0.00,-0.00,0.12,-0.49,9.83,0.00,0.00,-0.00,0.37,-0.61,9.90,0.00,-0.00,-0.00,2.15,-0.70,9.61,3938.4331,10552.3574,0.35
884270150,0.01,-0.00,-0.00,-0.04,-0.48,9.85,-0.00,-0.00,-0.00,0.21,-0.25,9.91,0.00,0.00,-0.00,0.05,-0.50,9.85,0.00,0.00,-0.00,0.39,-0.61,9.85,0.01,-0.00,0.00,2.15,-0.67,9.64,3938.4331,10552.3574,0.35
884274266,0.01,0.00,0.00,-0.02,-0.48,9.83,0.00,-0.00,0.00,0.27,-0.22,9.84,0.00,0.00,-0.00,0.07,-0.49,9.83,0.00,0.00,-0.00,0.39,-0.65,9.89,0.01,-0.00,-0.00,2.15,-0.71,9.63,3938.4331,10552.3574,0.35
884278365,0.01,0.00,-0.00,-0.04,-0.46,9.83,0.00,-0.00,-0.00,0.21,-0.23,9.84,0.00,0.00,-0.00,0.10,-0.53,9.83,0.01,0.00,-0.00,0.40,-0.61,9.87,0.01,-0.00,-0.00,2.19,-0.68,9.60,3938.4331,10552.3574,0.35
884282415,0.01,0.00,0.00,-0.06,-0.49,9.83,0.01,-0.00,-0.00,0.21,-0.19,9.86,0.01,0.00,-0.00,0.07,-0.48,9.88,0.01,-0.00,-0.00,0.35,-0.60,9.71,0.01,-0.00,-0.00,2.14,-0.71,9.65,3938.4331,10552.3574,0.35
884287537,0.01,0.00,0.00,-0.07,-0.48,9.88,0.01,-0.00,0.00,0.18,-0.25,9.87,0.01,0.00,-0.00,0.04,-0.45,9.83,0.01,0.00,-0.00,0.37,-0.63,9.83,0.01,-0.00,-0.00,2.17,-0.69,9.66,3938.4331,10552.3574,0.35
884291673,0.02,0.00,0.00,-0.06,-0.48,9.78,0.01,-0.00,0.00,0.18,-0.24,9.87,0.01,0.00,-0.00,0.03,-0.47,9.83,0.01,0.00,-0.00,0.40,-0.62,9.84,0.02,-0.00,-0.00,2.14,-0.71,9.58,3938.4331,10552.3574,0.35
884295788,0.02,0.00,-0.00,-0.02,-0.51,9.82,0.02,-0.00,-0.00,0.20,-0.23,9.87,0.02,0.00,0.00,0.09,-0.49,9.79,0.02,0.00,0.00,0.32,-0.61,9.88,0.02,-0.00,-0.00,2.14,-0.68,9.58,3938.4331,10552.3574,0.35
884300233,0.03,0.01,0.00,-0.06,-0.47,9.80,0.02,0.00,0.00,0.21,-0.29,9.87,0.02,0.00,-0.00,0.03,-0.54,9.80,0.02,0.00,0.00,0.32,-0.60,9.80,0.02,-0.00,-0.01,2.12,-0.68,9.57,3938.4331,10552.3574,0.35
884304643,0.03,0.00,0.00,-0.04,-0.48,9.83,0.02,-0.00,0.00,0.19,-0.24,9.87,0.02,0.00,-0.00,0.04,-0.51,9.78,0.02,0.00,-0.00,0.36,-0.65,9.82,0.03,0.00,-0.01,2.13,-0.71,9.60,3938.4331,10552.3574,0.35
884308985,0.03,0.00,0.00,-0.05,-0.52,9.83,0.02,0.00,0.00,0.19,-0.26,9.88,0.02,0.00,-0.00,0.08,-0.52,9.82,0.03,0.00,-0.00,0.33,-0.61,9.86,0.03,0.00,-0.01,2.12,-0.72,9.54,3938.4331,10552.3574,0.35
884314749,0.03,0.00,0.00,-0.06,-0.56,9.84,0.02,0.00,0.00,0.19,-0.25,9.85,0.02,0.01,-0.00,0.07,-0.50,9.82,0.03,0.01,-0.00,0.35,-0.61,9.96,0.03,0.00,-0.01,2.13,-0.71,9.66,3938.4331,10552.3574,0.35
884319046,0.03,0.00,0.00,-0.04,-0.44,9.80,0.02,-0.00,0.00,0.19,-0.23,9.69,0.02,0.01,0.00,0.07,-0.46,9.78,0.03,0.00,0.00,0.29,-0.62,9.91,0.03,0.00,-0.01,2.14,-0.71,9.70,3938.4331,10552.3574,0.35
884323364,0.02,0.00,0.00,-0.10,-0.48,9.86,0.02,-0.00,0.00,0.19,-0.23,9.92,0.02,0.00,-0.00,0.06,-0.50,9.89,0.02,0.00,0.00,0.33,-0.59,9.96,0.02,0.00,-0.01,2.13,-0.73,9.68,3938.4331,10552.3574,0.35
884327723,0.02,0.00,0.00,-0.09,-0.44,9.85,0.01,-0.00,0.00,0.19,-0.23,9.94,0.01,0.00,-0.00,0.04,-0.49,9.88,0.02,0.00,-0.00,0.38,-0.61,9.90,0.02,0.00,-0.00,2.17,-0.71,9.77,3938.4331,10552.3574,0.35
884332178,0.01,0.00,0.00,-0.08,-0.48,9.83,0.01,0.00,0.00,0.17,-0.23,9.91,0.01,0.00,-0.00,0.07,-0.49,9.89,0.01,0.00,-0.00,0.37,-0.62,9.98,0.01,-0.00,-0.00,2.15,-0.70,9.74,3938.4331,10552.3574,0.35
884336563,0.01,-0.00,0.00,-0.06,-0.48,9.82,0.01,-0.00,-0.00,0.17,-0.21,9.92,0.01,0.00,-0.00,0.04,-0.47,9.90,0.01,0.00,-0.00,0.36,-0.60,9.90,0.01,-0.00,-0.00,2.13,-0.66,9.66,3938.4331,10552.3574,0.35
884340949,0.00,0.00,0.00,-0.03,-0.48,9.84,0.00,-0.00,0.00,0.20,-0.21,9.92,0.00,0.00,-0.00,0.05,-0.47,9.88,0.01,0.00,-0.00,0.35,-0.57,9.88,0.01,-0.00,-0.00,2.18,-0.69,9.63,3938.4331,10552.3574,0.35
884345255,0.00,0.00,0.00,-0.04,-0.47,9.85,0.00,-0.00,-0.00,0.19,-0.29,9.89,0.00,0.00,-0.00,0.07,-0.50,9.82,0.01,0.00,-0.00,0.39,-0.63,9.90,0.01,-0.00,-0.00,2.15,-0.71,9.61,3938.4331,10552.3574,0.35
884349539,0.00,0.00,-0.00,-0.05,-0.48,9.85,-0.00,-0.00,-0.00,0.23,-0.23,9.88,0.00,0.00,-0.00,0.07,-0.46,9.84,0.00,0.00,0.00,0.36,-0.66,9.93,0.01,-0.00,-0.00,2.13,-0.67,9.62,3938.4331,10552.3574,0.35
884353889,0.00,0.00,0.00,-0.04,-0.48,9.85,-0.00,-0.00,-0.00,0.21,-0.25,9.91,-0.00,0.00,-0.00,0.07,-0.44,9.85,0.00,0.00,-0.00,0.35,-0.59,9.89,0.01,-0.00,-0.00,2.18,-0.69,9.64,3938.4331,10552.3574,0.35
884358209,0.00,0.00,0.00,-0.05,-0.46,9.82,0.00,-0.00,0.00,0.18,-0.23,9.85,0.00,0.00,-0.00,0.06,-0.46,9.86,0.00,0.00,-0.00,0.39,-0.59,9.87,0.00,-0.00,-0.00,2.16,-0.62,9.68,3938.4331,10552.3574,0.35
884362590,0.00,0.00,0.00,-0.01,-0.48,9.84,-0.00,-0.00,-0.00,0.23,-0.25,9.89,-0.00,0.00,-0.00,0.07,-0.47,9.87,0.00,0.00,-0.00,0.38,-0.64,9.91,0.00,-0.00,-0.00,2.13,-0.66,9.63,3938.4331,10552.3574,0.35
884366731,0.00,0.00,0.00,-0.03,-0.51,9.84,0.00,-0.00,0.00,0.17,-0.22,9.88,-0.00,0.00,-0.00,0.06,-0.52,9.82,0.00,0.00,-0.00,0.39,-0.61,9.88,0.00,-0.00,-0.00,2.18,-0.70,9.67,3938.4331,10552.3574,0.35
884370834,0.00,0.00,0.00,-0.04,-0.47,9.87,0.00,-0.00,0.00,0.22,-0.24,9.89,-0.00,0.00,0.00,0.07,-0.47,9.85,0.00,0.00,0.00,0.39,-0.62,9.84,0.01,-0.00,-0.00,2.14,-0.70,9.59,3938.4331,10552.3574,0.35
884376066,0.00,0.00,0.00,-0.06,-0.48,9.80,0.00,-0.00,0.00,0.20,-0.24,9.87,-0.00,0.00,0.00,0.09,-0.47,9.82,0.00,0.00,-0.00,0.36,-0.62,9.85,0.00,-0.00,-0.00,2.14,-0.70,9.66,3938.4331,10552.3574,0.35
884380051,0.00,0.00,0.00,-0.03,-0.47,9.86,-0.00,-0.00,0.00,0.20,-0.22,9.85,-0.00,0.00,-0.00,0.08,-0.47,9.84,0.00,0.00,0.00,0.37,-0.59,9.90,0.00,-0.00,-0.00,2.17,-0.68,9.66,3938.4331,10552.3574,0.35
884384058,0.00,-0.00,0.00,-0.02,-0.48,9.82,-0.00,-0.00,0.00,0.21,-0.21,9.89,-0.00,0.00,-0.00,0.11,-0.49,9.82,0.00,0.00,0.00,0.39,-0.60,9.87,0.01,-0.00,0.00,2.16,-0.68,9.63,3938.4331,10552.3574,0.35
884388078,0.00,-0.00,0.00,-0.04,-0.48,9.83,-0.00,-0.00,0.00,0.19,-0.26,9.87,-0.00,0.00,-0.00,0.08,-0.51,9.85,0.00,0.00,-0.00,0.40,-0.65,9.87,0.01,-0.00,-0.00,2.15,-0.69,9.63,3938.4331,10552.3574,0.35
884392452,0.00,-0.00,0.00,-0.01,-0.48,9.83,-0.00,-0.00,0.00,0.23,-0.22,9.86,-0.00,0.00,-0.00,0.06,-0.47,9.83,0.00,0.00,0.00,0.39,-0.61,9.89,0.01,-0.00,-0.00,2.15,-0.71,9.64,3938.4331,10552.3574,0.35
884396919,0.00,-0.00,0.00,-0.05,-0.44,9.83,-0.00,-0.00,-0.00,0.20,-0.21,9.88,0.00,0.00,-0.00,0.10,-0.46,9.86,0.00,0.00,0.00,0.38,-0.58,9.87,0.01,-0.00,-0.00,2.21,-0.65,9.60,3938.4331,10552.3574,0.35
884401341,0.00,-0.00,-0.00,0.00,-0.48,9.85,0.00,-0.00,-0.00,0.23,-0.19,9.89,0.00,0.00,-0.00,0.10,-0.45,9.84,0.00,0.00,-0.00,0.40,-0.60,9.87,0.00,-0.00,-0.00,2.19,-0.66,9.66,3938.4331,10552.3574,0.35
884405781,0.00,0.00,0.00,-0.02,-0.48,9.84,0.00,-0.00,0.00,0.18,-0.20,9.86,-0.00,0.00,-0.00,0.10,-0.47,9.84,0.00,0.00,0.00,0.39,-0.60,9.86,0.00,-0.00,-0.00,2.18,-0.70,9.62,3938.4331,10552.3574,0.35
884410211,0.00,0.00,0.00,-0.06,-0.48,9.82,-0.00,-0.00,-0.00,0.23,-0.22,9.88,-0.00,0.00,0.00,0.07,-0.50,9.83,0.00,0.00,0.00,0.39,-0.60,9.88,0.00,-0.00,-0.00,2.18,-0.69,9.64,3938.4329,10552.3564,0.30
884414483,0.00,0.00,0.00,-0.05,-0.48,9.85,-0.00,-0.00,-0.00,0.20,-0.22,9.86,0.00,0.00,-0.00,0.08,-0.48,9.86,0.00,0.00,-0.00,0.39,-0.58,9.87,0.01,-0.00,-0.00,2.13,-0.69,9.61,3938.4329,10552.3564,0.30
884418770,0.00,0.00,0.00,-0.05,-0.44,9.82,0.00,-0.00,0.00,0.19,-0.26,9.85,-0.00,0.00,-0.00,0.08,-0.48,9.83,0.00,0.00,-0.00,0.35,-0.61,9.89,0.01,-0.00,-0.00,2.16,-0.66,9.61,3938.4329,10552.3564,0.30
884423065,0.01,0.00,-0.00,-0.07,-0.48,9.84,0.00,-0.00,0.00,0.20,-0.27,9.85,0.00,0.00,-0.00,0.07,-0.46,9.82,0.00,0.00,-0.00,0.36,-0.59,9.88,0.01,0.00,-0.00,2.13,-0.67,9.63,3938.4329,10552.3564,0.30
884427399,0.01,0.00,0.00,-0.04,-0.48,9.83,0.00,-0.00,0.00,0.21,-0.24,9.88,0.00,0.00,-0.00,0.07,-0.49,9.85,0.01,0.00,-0.00,0.41,-0.61,9.81,0.01,-0.00,-0.00,2.13,-0.69,9.64,3938.4329,10552.3564,0.30
884432118,0.01,0.00,0.00,-0.07,-0.46,9.86,0.00,0.00,-0.00,0.21,-0.21,9.89,0.00,0.00,-0.00,0.11,-0.47,9.84,0.01,0.00,-0.00,0.36,-0.55,9.85,0.01,-0.00,-0.00,2.15,-0.68,9.62,3938.4329,10552.3564,0.30
884436915,0.01,0.00,0.00,-0.03,-0.43,9.81,0.00,-0.00,0.00,0.18,-0.21,9.89,0.00,0.00,-0.00,0.08,-0.50,9.85,0.01,0.00,0.00,0.38,-0.63,9.89,0.01,-0.00,-0.00,2.16,-0.71,9.67,3938.4329,10552.3564,0.30
884441364,0.01,0.00,0.00,-0.06,-0.48,9.86,0.00,-0.00,0.00,0.21,-0.21,9.84,0.01,0.00,-0.00,0.08,-0.47,9.84,0.01,0.00,0.00,0.38,-0.63,9.90,0.01,-0.00,-0.00,2.15,-0.70,9.65,3938.4329,10552.3564,0.30
884445781,0.01,0.00,-0.00,-0.06,-0.48,9.83,0.00,-0.00,0.00,0.19,-0.22,9.87,0.00,0.00,-0.00,0.04,-0.47,9.84,0.01,0.00,-0.00,0.39,-0.61,9.91,0.01,-0.00,-0.00,2.13,-0.69,9.66,3938.4329,10552.3564,0.30
884451385,0.01,0.00,-0.00,-0.06,-0.45,9.83,0.00,-0.00,-0.00,0.19,-0.24,9.84,0.00,0.00,0.00,0.08,-0.49,9.83,0.01,0.00,0.00,0.39,-0.63,9.90,0.01,0.00,-0.00,2.15,-0.67,9.65,3938.4329,10552.3564,0.30
884455446,0.00,0.00,0.00,-0.02,-0.47,9.82,0.00,-0.00,0.00,0.18,-0.22,9.89,0.00,0.00,-0.00,0.09,-0.46,9.88,0.00,0.00,0.00,0.37,-0.59,9.89,0.01,-0.00,-0.00,2.15,-0.64,9.63,3938.4329,10552.3564,0.30
884459512,0.00,0.00,-0.00,-0.02,-0.45,9.86,0.00,-0.00,-0.00,0.18,-0.22,9.89,0.00,0.00,-0.00,0.07,-0.46,9.88,0.00,0.00,-0.00,0.34,-0.62,9.90,0.00,-0.00,-0.00,2.16,-0.69,9.66,3938.4329,10552.3564,0.30
884463609,0.00,0.00,0.00,-0.02,-0.47,9.87,0.00,-0.00,-0.00,0.18,-0.25,9.89,0.00,0.00,-0.00,0.06,-0.48,9.83,0.00,0.00,0.00,0.37,-0.62,9.86,0.00,-0.00,0.00,2.16,-0.66,9.64,3938.4329,10552.3564,0.30
884468802,0.00,0.00,-0.00,-0.03,-0.42,9.85,-0.00,-0.00,-0.00,0.17,-0.21,9.90,-0.00,0.00,-0.00,0.08,-0.50,9.85,0.00,0.00,-0.00,0.36,-0.59,9.89,0.00,-0.00,-0.00,2.15,-0.65,9.60,3938.4329,10552.3564,0.30
884472921,0.00,-0.00,0.00,-0.05,-0.47,9.82,0.00,-0.00,0.00,0.25,-0.17,9.87,0.00,0.00,-0.00,0.08,-0.46,9.82,0.00,0.00,-0.00,0.35,-0.59,9.88,0.00,-0.00,-0.00,2.15,-0.69,9.65,3938.4329,10552.3564,0.30
884477042,0.00,0.00,0.00,-0.04,-0.50,9.81,0.00,-0.00,0.00,0.17,-0.25,9.90,-0.00,0.00,-0.00,0.07,-0.48,9.83,0.00,0.00,-0.00,0.37,-0.59,9.88,0.00,-0.00,-0.00,2.16,-0.68,9.64,3938.4329,10552.3564,0.30
884481100,0.00,0.00,0.00,-0.07,-0.48,9.82,0.00,-0.00,0.00,0.19,-0.25,9.89,0.00,0.00,-0.00,0.08,-0.47,9.78,0.00,0.00,0.00,0.38,-0.61,9.89,0.01,-0.00,-0.00,2.16,-0.67,9.60,3938.4329,10552.3564,0.30
884485404,0.01,0.00,-0.00,-0.03,-0.47,9.86,0.00,-0.00,0.00,0.18,-0.21,9.89,0.00,0.00,-0.00,0.09,-0.43,9.82,0.00,0.00,-0.00,0.37,-0.61,9.88,0.01,0.00,-0.00,2.18,-0.67,9.64,3938.4329,10552.3564,0.30
884489698,0.01,0.00,-0.00,-0.02,-0.46,9.83,0.00,-0.00,0.00,0.21,-0.22,9.88,0.00,0.00,-0.00,0.11,-0.49,9.85,0.01,0.00,0.00,0.39,-0.62,9.89,0.01,-0.00,-0.00,2.14,-0.65,9.63,3938.4329,10552.3564,0.30
884494025,0.00,0.00,0.00,-0.06,-0.47,9.85,0.00,0.00,0.00,0.19,-0.22,9.86,0.00,0.00,-0.00,0.10,-0.50,9.83,0.00,0.00,-0.00,0.40,-0.59,9.90,0.01,-0.00,-0.00,2.17,-0.61,9.62,3938.4329,10552.3564,0.30
884498388,0.00,0.00,-0.00,-0.06,-0.48,9.85,0.00,-0.00,-0.00,0.18,-0.21,9.89,0.00,0.00,-0.00,0.07,-0.51,9.82,0.00,0.00,-0.00,0.35,-0.64,9.90,0.01,-0.00,-0.00,2.15,-0.70,9.61,3938.4329,10552.3564,0.30
884502795,0.00,0.00,-0.00,-0.03,-0.48,9.82,-0.00,-0.00,0.00,0.23,-0.27,9.86,0.00,0.00,-0.00,0.08,-0.45,9.83,0.00,0.00,-0.00,0.36,-0.62,9.90,0.01,-0.00,-0.00,2.18,-0.67,9.67,3938.4329,10552.3564,0.30
884507228,0.00,-0.00,0.00,-0.02,-0.48,9.85,0.00,-0.00,0.00,0.21,-0.26,9.90,-0.00,0.00,-0.00,0.10,-0.45,9.85,0.00,0.00,-0.00,0.39,-0.61,9.90,0.01,-0.00,-0.00,2.18,-0.67,9.65,3938.4329,10552.3564,0.30
884511652,0.00,0.00,0.00,-0.06,-0.47,9.85,-0.00,-0.00,0.00,0.20,-0.18,9.87,0.00,0.00,-0.00,0.09,-0.47,9.88,0.00,0.00,-0.00,0.39,-0.55,9.88,0.00,-0.00,-0.00,2.15,-0.66,9.62,3938.4329,10552.3564,0.30
884516026,0.00,0.00,0.00,-0.05,-0.47,9.85,-0.00,-0.00,0.00,0.18,-0.22,9.88,-0.00,0.00,-0.00,0.13,-0.47,9.85,-0.00,0.00,0.00,0.39,-0.60,9.88,0.00,-0.00,-0.00,2.13,-0.65,9.65,3938.4329,10552.3564,0.30
884520274,-0.00,-0.00,-0.00,-0.03,-0.46,9.83,-0.00,-0.00,0.00,0.19,-0.21,9.88,-0.01,0.00,-0.00,0.08,-0.47,9.86,-0.00,0.00,-0.00,0.38,-0.60,9.90,0.00,-0.00,-0.00,2.19,-0.67,9.61,3938.4329,10552.3564,0.30
884524538,-0.00,-0.00,-0.00,-0.06,-0.45,9.81,-0.00,-0.00,0.00,0.21,-0.23,9.82,-0.00,0.00,-0.00,0.05,-0.47,9.85,-0.00,0.00,-0.00,0.35,-0.60,9.92,0.00,-0.00,-0.00,2.17,-0.68,9.69,3938.4329,10552.3564,0.30
884528863,-0.00,-0.00,0.00,-0.05,-0.44,9.86,-0.01,-0.00,0.00,0.17,-0.23,9.87,-0.00,0.00,-0.00,0.06,-0.45,9.86,-0.00,0.00,-0.00,0.36,-0.60,9.89,-0.00,-0.00,-0.00,2.17,-0.66,9.64,3938.4329,10552.3564,0.30
884533230,-0.00,0.00,0.00,-0.06,-0.47,9.85,-0.01,-0.00,-0.00,0.18,-0.20,9.86,-0.01,0.00,-0.00,0.09,-0.47,9.86,-0.00,-0.00,-0.00,0.35,-0.59,9.92,0.00,-0.00,0.00,2.17,-0.67,9.64,3938.4329,10552.3564,0.30
884537682,-0.00,-0.00,-0.00,-0.04,-0.50,9.85,-0.00,-0.00,0.00,0.18,-0.19,9.89,-0.01,0.00,-0.00,0.03,-0.49,9.85,-0.00,-0.00,-0.00,0.38,-0.60,9.90,0.00,-0.00,0.00,2.16,-0.63,9.64,3938.4329,10552.3564,0.30
884542114,-0.00,-0.00,-0.00,-0.06,-0.46,9.84,-0.00,-0.01,0.00,0.17,-0.24,9.89,-0.01,0.00,-0.00,0.03,-0.50,9.83,-0.00,0.00,0.00,0.35,-0.60,9.89,0.00,-0.00,-0.00,2.15,-0.70,9.61,3938.4329,10552.3564,0.30
884546235,-0.00,-0.00,-0.00,-0.02,-0.47,9.84,-0.01,-0.00,0.00,0.18,-0.24,9.86,-0.01,0.00,-0.00,0.07,-0.46,9.83,-0.00,0.00,-0.00,0.38,-0.61,9.92,0.00,-0.00,0.00,2.11,-0.65,9.65,3938.4329,10552.3564,0.30
884550372,-0.00,-0.00,0.00,-0.06,-0.52,9.80,-0.01,-0.00,-0.00,0.18,-0.24,9.85,-0.01,0.00,-0.00,0.03,-0.49,9.85,-0.00,0.00,0.00,0.34,-0.62,9.92,0.00,-0.00,0.00,2.13,-0.69,9.59,3938.4329,10552.3564,0.30
884559078,-0.00,-0.00,-0.00,-0.04,-0.48,9.85,-0.00,-0.00,0.00,0.17,-0.23,9.88,-0.00,0.00,-0.00,0.06,-0.50,9.83,-0.00,0.00,-0.00,0.37,-0.62,9.86,0.00,-0.00,0.00,2.14,-0.70,9.65,3938.4329,10552.3564,0.30
884563137,-0.00,0.00,0.00,-0.06,-0.49,9.86,-0.01,-0.00,-0.00,0.18,-0.22,9.92,-0.01,0.00,-0.00,0.08,-0.50,9.86,-0.00,0.00,0.00,0.35,-0.60,9.86,0.00,-0.00,0.00,2.16,-0.69,9.61,3938.4329,10552.3564,0.30
884567233,-0.00,0.00,0.00,-0.03,-0.45,9.82,-0.01,-0.00,0.00,0.20,-0.22,9.87,-0.01,0.00,-0.00,0.08,-0.43,9.84,-0.00,0.00,0.00,0.35,-0.61,9.89,0.00,-0.00,-0.00,2.16,-0.69,9.68,3938.4329,10552.3564,0.30
884571351,-0.01,-0.00,-0.00,-0.06,-0.49,9.80,-0.01,-0.01,-0.00,0.20,-0.20,9.89,-0.01,0.00,-0.00,0.05,-0.51,9.84,-0.00,0.00,-0.00,0.37,-0.62,9.94,0.00,-0.00,-0.00,2.18,-0.68,9.70,3938.4329,10552.3564,0.30
884575797,-0.01,-0.00,0.00,-0.06,-0.44,9.86,-0.01,-0.00,0.00,0.17,-0.24,9.87,-0.01,0.00,-0.00,0.08,-0.51,9.80,-0.01,0.00,-0.00,0.39,-0.59,9.88,-0.00,-0.00,0.00,2.17,-0.69,9.68,3938.4329,10552.3564,0.30
884580209,-0.01,-0.00,0.00,-0.07,-0.47,9.85,-0.01,-0.00,0.00,0.21,-0.23,9.88,-0.01,0.00,-0.00,0.06,-0.50,9.88,-0.01,0.00,-0.00,0.36,-0.58,9.92,-0.01,-0.00,-0.00,2.16,-0.68,9.68,3938.4329,10552.3564,0.30
884585993,-0.01,-0.00,0.00,-0.03,-0.48,9.84,-0.02,-0.00,-0.00,0.19,-0.25,9.85,-0.01,0.00,-0.00,0.05,-0.47,9.85,-0.01,0.00,0.00,0.37,-0.61,9.93,-0.01,-0.00,0.00,2.17,-0.72,9.71,3938.4329,10552.3564,0.30
884590308,-0.02,-0.00,0.00,-0.05,-0.43,9.83,-0.02,-0.00,-0.00,0.20,-0.22,9.88,-0.01,-0.00,-0.00,0.05,-0.51,9.87,-0.01,0.00,-0.00,0.36,-0.58,9.90,-0.01,-0.00,0.00,2.16,-0.65,9.67,3938.4329,10552.3564,0.30
884594599,-0.01,-0.00,-0.00,-0.05,-0.48,9.81,-0.02,-0.00,0.00,0.20,-0.21,9.89,-0.02,-0.00,-0.00,0.08,-0.42,9.85,-0.01,-0.00,-0.00,0.39,-0.58,9.93,-0.01,-0.01,0.00,2.19,-0.71,9.58,3938.4329,10552.3564,0.30
884598938,-0.01,-0.00,0.00,-0.05,-0.43,9.76,-0.02,-0.01,0.00,0.19,-0.22,9.87,-0.01,-0.00,0.00,0.10,-0.46,9.82,-0.01,-0.00,0.00,0.42,-0.60,9.88,-0.01,-0.00,0.00,2.14,-0.62,9.64,3938.4329,10552.3564,0.30
884603305,-0.01,-0.00,0.00,-0.04,-0.48,9.83,-0.02,-0.00,0.00,0.20,-0.27,9.87,-0.02,0.00,-0.00,0.09,-0.49,9.82,-0.01,-0.00,0.00,0.40,-0.66,9.86,-0.01,-0.00,-0.00,2.16,-0.69,9.59,3938.4329,10552.3564,0.30
884607714,-0.01,-0.00,0.00,-0.05,-0.45,9.82,-0.01,-0.00,-0.00,0.19,-0.24,9.84,-0.02,0.00,-0.00,0.08,-0.46,9.80,-0.01,0.00,0.00,0.34,-0.60,9.85,-0.01,-0.00,0.00,2.15,-0.69,9.66,3938.4329,10552.3564,0.30
884612116,-0.01,-0.00,-0.00,-0.04,-0.44,9.81,-0.01,-0.01,0.00,0.18,-0.23,9.86,-0.01,-0.00,-0.00,0.07,-0.49,9.85,-0.01,-0.00,0.00,0.40,-0.62,9.87,-0.01,-0.00,0.00,2.18,-0.68,9.62,3938.4329,10552.3564,0.30
884616500,-0.01,-0.00,0.00,0.00,-0.48,9.82,-0.01,-0.01,0.00,0.19,-0.21,9.88,-0.01,0.00,-0.00,0.08,-0.46,9.82,-0.01,0.00,-0.00,0.38,-0.62,9.81,-0.01,-0.00,0.00,2.16,-0.68,9.63,3938.4329,10552.3564,0.30
884620882,-0.01,-0.00,-0.00,-0.03,-0.46,9.85,-0.01,-0.01,-0.00,0.22,-0.27,9.84,-0.01,0.00,-0.00,0.07,-0.48,9.84,-0.01,-0.00,-0.00,0.38,-0.55,9.91,-0.01,-0.00,0.00,2.13,-0.70,9.58,3938.4329,10552.3564,0.30
884625167,-0.01,-0.00,0.00,-0.07,-0.48,9.83,-0.01,-0.01,0.00,0.17,-0.26,9.88,-0.01,0.00,-0.00,0.07,-0.47,9.82,-0.01,0.00,-0.00,0.39,-0.58,9.85,-0.01,-0.00,0.00,2.13,-0.65,9.59,3938.4329,10552.3564,0.30
884629467,-0.01,0.00,0.00,-0.03,-0.53,9.85,-0.01,-0.00,0.00,0.20,-0.27,9.87,-0.01,0.00,-0.00,0.07,-0.50,9.82,-0.01,0.00,-0.00,0.37,-0.60,9.89,-0.00,-0.00,0.00,2.16,-0.71,9.60,3938.4329,10552.3564,0.30
884633829,-0.00,-0.00,-0.00,-0.06,-0.48,9.83,-0.00,-0.01,0.00,0.21,-0.24,9.86,-0.01,-0.00,-0.00,0.08,-0.49,9.84,-0.00,0.00,0.00,0.38,-0.62,9.86,-0.00,-0.00,-0.00,2.15,-0.68,9.58,3938.4329,10552.3564,0.30
884637965,-0.00,-0.00,0.00,-0.04,-0.49,9.84,-0.01,-0.00,0.00,0.18,-0.24,9.87,-0.01,0.00,-0.00,0.08,-0.46,9.84,-0.00,-0.00,0.00,0.38,-0.59,9.90,-0.00,-0.00,-0.00,2.18,-0.64,9.64,3938.4329,10552.3564,0.30
884642143,-0.00,0.00,0.00,-0.06,-0.50,9.85,-0.00,-0.00,0.00,0.18,-0.24,9.87,-0.00,0.00,0.00,0.07,-0.51,9.81,-0.00,0.00,-0.00,0.37,-0.60,9.89,0.00,-0.00,-0.00,2.14,-0.69,9.61,3938.4329,10552.3564,0.30
884646248,0.00,0.00,0.00,-0.03,-0.48,9.84,-0.00,-0.00,-0.00,0.21,-0.23,9.85,-0.00,0.00,-0.00,0.07,-0.48,9.82,-0.00,0.00,-0.00,0.40,-0.62,9.86,0.00,-0.00,-0.00,2.18,-0.68,9.61,3938.4329,10552.3564,0.30
884651396,0.01,0.00,0.00,-0.02,-0.49,9.83,-0.00,-0.00,-0.00,0.21,-0.25,9.91,-0.00,0.00,-0.00,0.10,-0.47,9.81,-0.00,0.00,-0.00,0.39,-0.63,9.84,0.00,-0.00,-0.00,2.14,-0.69,9.62,3938.4329,10552.3564,0.30
884655429,0.00,-0.00,-0.00,-0.03,-0.47,9.82,-0.00,-0.00,-0.00,0.22,-0.22,9.87,-0.00,0.00,0.00,0.08,-0.47,9.83,-0.00,0.00,-0.00,0.37,-0.61,9.86,0.00,-0.00,-0.00,2.13,-0.64,9.64,3938.4329,10552.3564,0.30
884659437,0.01,0.00,0.00,-0.02,-0.50,9.83,0.00,-0.00,0.00,0.25,-0.25,9.84,0.00,0.00,-0.00,0.12,-0.47,9.82,0.00,0.00,-0.00,0.40,-0.61,9.86,0.01,-0.01,0.00,2.20,-0.69,9.65,3938.4329,10552.3564,0.30
884663796,0.01,0.00,0.00,-0.05,-0.48,9.83,-0.00,-0.00,-0.00,0.24,-0.25,9.87,-0.00,0.00,-0.00,0.09,-0.52,9.81,0.00,0.00,0.00,0.39,-0.60,9.86,0.00,-0.00,0.00,2.15,-0.67,9.65,3938.4329,10552.3564,0.30
884668152,0.01,0.00,0.00,-0.04,-0.50,9.87,0.01,-0.00,0.00,0.23,-0.22,9.90,0.00,0.00,-0.00,0.09,-0.47,9.82,0.00,0.00,0.00,0.39,-0.59,9.83,0.01,-0.00,-0.00,2.16,-0.71,9.57,3938.4329,10552.3564,0.30
884672578,0.01,0.00,0.00,-0.06,-0.47,9.83,0.00,-0.00,-0.00,0.24,-0.22,9.84,0.01,0.00,-0.00,0.11,-0.45,9.84,0.01,0.00,-0.00,0.39,-0.64,9.83,0.01,-0.00,-0.00,2.18,-0.66,9.61,3938.4329,10552.3564,0.30
884677041,0.01,0.00,0.00,-0.02,-0.43,9.84,0.01,-0.00,0.00,0.22,-0.22,9.84,0.01,0.00,-0.00,0.10,-0.47,9.81,0.01,0.00,-0.00,0.42,-0.60,9.83,0.01,0.00,-0.00,2.17,-0.69,9.58,3938.4329,10552.3564,0.30
884681462,0.02,0.00,-0.00,0.00,-0.47,9.81,0.01,0.00,0.00,0.18,-0.28,9.90,0.01,0.00,-0.00,0.08,-0.51,9.82,0.01,0.00,-0.00,0.34,-0.63,9.86,0.01,0.00,-0.00,2.16,-0.74,9.55,3938.4329,10552.3564,0.30
884689121,0.02,0.00,-0.00,-0.08,-0.47,9.85,0.02,-0.00,0.00,0.22,-0.21,9.86,0.02,0.00,-0.00,0.07,-0.49,9.79,0.02,0.00,-0.00,0.37,-0.59,9.82,0.02,-0.00,-0.00,2.16,-0.69,9.61,3938.4329,10552.3564,0.30
884693387,0.03,0.01,0.00,-0.07,-0.62,10.03,0.02,0.00,-0.00,0.20,-0.32,9.86,0.02,0.01,0.00,0.10,-0.54,9.84,0.02,0.00,-0.00,0.40,-0.65,9.86,0.02,0.00,-0.01,2.16,-0.67,9.60,3938.4329,10552.3564,0.30
884697673,0.03,0.00,-0.00,-0.04,-0.43,9.83,0.02,0.00,-0.00,0.21,-0.19,9.86,0.02,0.00,0.00,0.06,-0.47,9.82,0.02,0.01,-0.00,0.39,-0.62,9.87,0.03,0.00,-0.01,2.17,-0.74,9.62,3938.4329,10552.3564,0.30
884702001,0.03,0.00,-0.00,-0.01,-0.45,9.84,0.02,-0.00,-0.00,0.19,-0.21,9.84,0.02,0.01,-0.00,0.12,-0.49,9.85,0.02,0.01,-0.00,0.44,-0.59,9.91,0.03,0.00,-0.01,2.16,-0.69,9.59,3938.4329,10552.3564,0.30
884706339,0.02,0.00,0.00,-0.01,-0.47,9.83,0.02,0.00,0.00,0.25,-0.23,9.88,0.02,0.00,-0.00,0.07,-0.48,9.83,0.02,0.00,0.00,0.39,-0.59,9.89,0.02,0.00,-0.01,2.17,-0.64,9.63,3938.4329,10552.3564,0.30
884710815,0.02,0.00,-0.00,-0.03,-0.45,9.85,0.02,-0.00,-0.00,0.21,-0.25,9.86,0.02,0.00,-0.00,0.06,-0.51,9.86,0.02,0.00,-0.00,0.41,-0.62,9.92,0.02,0.00,-0.01,2.16,-0.71,9.64,3938.4329,10552.3564,0.30
884715259,0.02,0.01,0.00,-0.03,-0.44,9.84,0.01,0.00,-0.00,0.22,-0.20,9.84,0.01,0.00,-0.00,0.09,-0.45,9.85,0.02,0.00,-0.00,0.38,-0.59,9.90,0.02,0.00,-0.01,2.18,-0.68,9.63,3938.4329,10552.3564,0.30
884719702,0.02,0.00,0.00,-0.06,-0.46,9.81,0.01,0.00,-0.00,0.23,-0.22,9.88,0.01,0.00,-0.00,0.09,-0.50,9.86,0.02,0.00,-0.00,0.39,-0.58,9.90,0.02,-0.00,-0.01,2.21,-0.65,9.70,3938.4329,10552.3564,0.30
884725383,0.01,0.00,-0.00,-0.03,-0.45,9.81,0.01,0.00,-0.00,0.20,-0.21,9.90,0.01,0.01,-0.00,0.07,-0.48,9.79,0.01,0.00,-0.00,0.39,-0.59,9.94,0.01,-0.00,-0.01,2.17,-0.66,9.70,3938.4329,10552.3564,0.30
884729703,0.01,0.00,0.00,-0.03,-0.48,9.81,0.01,-0.00,0.00,0.19,-0.23,9.85,0.01,0.00,-0.00,0.07,-0.49,9.88,0.01,0.00,-0.00,0.35,-0.60,9.92,0.01,-0.00,-0.00,2.16,-0.66,9.61,3938.4329,10552.3564,0.30
884733739,0.01,0.00,0.00,-0.04,-0.47,9.84,0.00,-0.00,-0.00,0.21,-0.22,9.84,0.01,0.00,-0.00,0.06,-0.50,9.83,0.01,0.00,-0.00,0.36,-0.61,9.88,0.01,-0.00,-0.00,2.11,-0.69,9.67,3938.4329,10552.3564,0.30
884737819,0.01,0.00,-0.00,-0.03,-0.46,9.85,0.00,-0.00,0.00,0.19,-0.21,9.88,0.00,0.00,-0.00,0.09,-0.51,9.85,0.01,0.00,-0.00,0.42,-0.59,9.93,0.01,-0.00,-0.00,2.15,-0.66,9.65,3938.4329,10552.3564,0.30
884742962,0.01,0.00,-0.00,-0.02,-0.46,9.81,0.00,0.00,-0.00,0.20,-0.25,9.86,0.00,0.00,-0.00,0.05,-0.49,9.86,0.01,0.00,-0.00,0.36,-0.62,9.88,0.01,-0.00,-0.00,2.15,-0.66,9.70,3938.4329,10552.3564,0.30
884747103,0.01,0.00,0.00,-0.06,-0.44,9.83,0.00,-0.00,-0.00,0.18,-0.18,9.90,0.00,0.00,0.00,0.02,-0.47,9.86,0.00,0.00,-0.00,0.36,-0.58,9.87,0.01,-0.00,-0.00,2.16,-0.70,9.64,3938.4329,10552.3564,0.30
884751202,0.01,0.00,-0.00,-0.05,-0.47,9.83,0.00,-0.00,0.00,0.17,-0.22,9.87,0.00,0.00,-0.00,0.05,-0.50,9.87,0.01,0.00,0.00,0.38,-0.58,9.91,0.01,-0.00,-0.00,2.16,-0.70,9.64,3938.4329,10552.3564,0.30
884755279,0.00,0.00,-0.00,-0.06,-0.48,9.79,-0.00,-0.00,-0.00,0.19,-0.20,9.88,0.00,0.00,-0.00,0.06,-0.50,9.86,0.00,0.00,0.00,0.37,-0.58,9.88,0.01,-0.00,-0.00,2.19,-0.69,9.66,3938.4329,10552.3564,0.30
884759655,0.00,0.00,0.00,-0.07,-0.45,9.79,0.00,-0.00,0.00,0.19,-0.21,9.91,0.00,0.00,-0.00,0.06,-0.45,9.82,0.00,0.00,0.00,0.35,-0.57,9.88,0.01,-0.00,-0.00,2.16,-0.69,9.65,3938.4329,10552.3564,0.30
884763931,0.00,-0.00,0.00,-0.03,-0.48,9.83,-0.00,-0.00,-0.00,0.19,-0.25,9.89,0.00,0.00,-0.00,0.04,-0.48,9.86,0.00,0.00,-0.00,0.35,-0.55,9.88,0.00,-0.00,-0.00,2.17,-0.69,9.63,3938.4329,10552.3564,0.30
884768263,0.00,-0.00,0.00,-0.06,-0.44,9.85,-0.00,-0.00,-0.00,0.19,-0.21,9.86,-0.00,0.00,-0.00,0.05,-0.47,9.85,0.00,0.00,-0.00,0.40,-0.59,9.89,0.00,-0.00,-0.00,2.20,-0.65,9.63,3938.4329,10552.3564,0.30
884772581,0.00,-0.00,0.00,-0.03,-0.45,9.82,-0.01,-0.00,-0.00,0.21,-0.24,9.85,-0.00,0.00,-0.00,0.08,-0.46,9.83,0.00,0.00,-0.00,0.38,-0.56,9.94,0.00,-0.00,0.00,2.16,-0.66,9.67,3938.4329,10552.3564,0.30
884776924,-0.00,0.00,-0.00,-0.02,-0.44,9.81,-0.00,-0.00,-0.00,0.18,-0.20,9.91,-0.00,0.00,-0.00,0.10,-0.49,9.86,0.00,0.00,-0.00,0.37,-0.60,9.90,0.00,0.00,-0.00,2.14,-0.71,9.66,3938.4329,10552.3564,0.30
884781378,0.00,0.00,0.00,-0.06,-0.43,9.83,-0.00,-0.00,0.00,0.17,-0.22,9.86,-0.00,0.00,-0.00,0.05,-0.44,9.81,0.00,0.00,0.00,0.37,-0.57,9.89,0.00,-0.00,-0.00,2.12,-0.66,9.61,3938.4329,10552.3564,0.30
884785786,0.00,-0.00,0.00,-0.02,-0.46,9.85,-0.00,-0.00,-0.00,0.17,-0.21,9.89,-0.00,0.00,-0.00,0.08,-0.45,9.84,-0.00,0.00,-0.00,0.36,-0.64,9.86,0.00,-0.00,0.00,2.15,-0.68,9.60,3938.4329,10552.3564,0.30
884790194,0.00,-0.00,0.00,-0.03,-0.48,9.84,-0.00,-0.00,0.00,0.20,-0.25,9.89,-0.00,0.00,-0.00,0.09,-0.44,9.86,0.00,0.00,0.00,0.38,-0.61,9.90,0.00,-0.00,-0.00,2.14,-0.67,9.61,3938.4329,10552.3564,0.30
884794497,0.00,-0.00,0.00,-0.06,-0.45,9.88,-0.00,-0.00,-0.00,0.19,-0.23,9.85,-0.00,0.00,-0.00,0.05,-0.48,9.83,0.00,0.00,-0.00,0.36,-0.59,9.89,0.00,-0.00,0.00,2.13,-0.66,9.62,3938.4329,10552.3564,0.30
884798735,0.00,0.00,-0.00,-0.04,-0.48,9.83,-0.00,-0.00,0.00,0.17,-0.24,9.91,-0.00,0.00,-0.00,0.04,-0.46,9.83,0.00,0.00,-0.00,0.33,-0.63,9.87,0.00,-0.00,-0.00,2.14,-0.67,9.61,3938.4329,10552.3564,0.30
884803074,0.00,0.00,0.00,-0.02,-0.47,9.84,0.00,-0.00,0.00,0.17,-0.20,9.86,0.00,0.00,-0.00,0.07,-0.44,9.82,0.00,0.00,-0.00,0.34,-0.60,9.91,0.01,-0.00,-0.00,2.11,-0.65,9.61,3938.4329,10552.3564,0.30
884807423,0.00,0.00,-0.00,-0.04,-0.40,9.83,-0.00,-0.00,0.00,0.18,-0.22,9.82,0.00,0.00,-0.00,0.05,-0.45,9.83,0.00,0.00,0.00,0.38,-0.57,9.87,0.01,-0.00,0.00,2.16,-0.69,9.62,3938.4329,10552.3564,0.30
884811788,0.01,0.00,0.00,-0.02,-0.46,9.85,0.00,-0.00,0.00,0.17,-0.20,9.89,0.00,0.00,0.00,0.04,-0.49,9.82,0.00,0.00,-0.00,0.40,-0.58,9.87,0.01,-0.00,-0.00,2.12,-0.71,9.61,3938.4329,10552.3564,0.30
884816248,0.01,0.00,0.00,-0.05,-0.44,9.83,0.00,-0.00,0.00,0.21,-0.22,9.86,0.00,0.00,-0.00,0.06,-0.43,9.83,0.00,0.00,-0.00,0.34,-0.63,9.90,0.01,-0.00,-0.00,2.15,-0.69,9.66,3938.4329,10552.3564,0.30
884820372,0.00,0.00,0.00,-0.01,-0.46,9.86,-0.00,-0.00,0.00,0.19,-0.19,9.84,0.00,0.00,-0.00,0.05,-0.48,9.83,0.00,0.00,-0.00,0.37,-0.57,9.89,0.01,-0.00,-0.00,2.16,-0.69,9.68,3938.4329,10552.3564,0.30
884824530,0.00,0.00,0.00,-0.06,-0.45,9.82,0.00,-0.00,-0.00,0.20,-0.23,9.91,0.00,0.00,-0.00,0.02,-0.47,9.89,0.00,0.00,-0.00,0.41,-0.60,9.86,0.01,-0.00,-0.00,2.17,-0.67,9.66,3938.4329,10552.3564,0.30
884828594,0.00,0.00,0.00,0.00,-0.46,9.85,-0.00,0.00,0.00,0.21,-0.23,9.88,-0.00,0.00,-0.00,0.06,-0.48,9.83,0.00,0.00,-0.00,0.36,-0.58,9.90,0.01,-0.00,-0.00,2.19,-0.65,9.65,3938.4329,10552.3564,0.30
884833651,0.00,-0.00,0.00,-0.01,-0.46,9.85,0.00,-0.00,-0.00,0.19,-0.23,9.87,0.00,0.00,-0.00,0.08,-0.49,9.79,0.00,0.00,-0.00,0.37,-0.58,9.84,0.01,-0.00,-0.00,2.15,-0.66,9.70,3938.4329,10552.3564,0.30
884837704,0.00,0.00,0.00,-0.01,-0.43,9.82,0.00,-0.00,0.00,0.20,-0.22,9.87,-0.00,0.00,-0.00,0.04,-0.50,9.86,0.00,0.00,-0.00,0.40,-0.62,9.87,0.00,-0.00,-0.00,2.12,-0.63,9.62,3938.4329,10552.3564,0.30
884841776,0.00,-0.00,0.00,-0.06,-0.46,9.86,0.00,-0.00,0.00,0.17,-0.24,9.89,-0.00,0.00,-0.00,0.07,-0.43,9.86,0.00,0.00,-0.00,0.39,-0.58,9.88,0.00,-0.00,-0.00,2.17,-0.69,9.62,3938.4329,10552.3564,0.30
884846233,0.00,-0.00,0.00,-0.05,-0.45,9.85,0.00,-0.00,0.00,0.20,-0.20,9.87,-0.00,0.00,-0.00,0.05,-0.45,9.84,0.00,0.00,0.00,0.39,-0.59,9.92,0.00,-0.00,-0.00,2.14,-0.68,9.68,3938.4329,10552.3564,0.30
884850661,0.00,0.00,0.00,-0.05,-0.45,9.83,-0.00,-0.00,0.00,0.21,-0.21,9.85,-0.00,0.00,-0.00,0.10,-0.44,9.85,0.00,0.00,0.00,0.37,-0.58,9.84,0.00,-0.00,-0.00,2.14,-0.64,9.62,3938.4329,10552.3564,0.30
884855089,0.00,-0.00,0.00,-0.06,-0.45,9.87,-0.00,-0.00,0.00,0.23,-0.24,9.90,-0.00,0.00,-0.00,0.10,-0.47,9.85,0.00,0.00,-0.00,0.42,-0.63,9.89,0.00,-0.00,0.00,2.15,-0.64,9.64,3938.4329,10552.3564,0.30
884860751,-0.00,-0.00,0.00,-0.06,-0.49,9.82,-0.00,-0.00,0.00,0.17,-0.22,9.84,-0.00,0.00,-0.00,0.04,-0.48,9.88,0.00,0.00,-0.00,0.38,-0.63,9.86,0.00,-0.00,-0.00,2.16,-0.62,9.64,3938.4329,10552.3564,0.30
884865031,0.00,-0.00,0.00,-0.05,-0.44,9.86,-0.00,-0.00,-0.00,0.25,-0.20,9.88,-0.00,0.00,-0.00,0.08,-0.46,9.82,0.00,0.00,0.00,0.39,-0.57,9.89,0.00,-0.00,0.00,2.15,-0.69,9.63,3938.4329,10552.3564,0.30
884869334,0.00,-0.00,0.00,-0.04,-0.46,9.83,-0.01,-0.00,-0.00,0.23,-0.21,9.86,-0.00,0.00,-0.00,0.05,-0.49,9.86,-0.00,0.00,-0.00,0.38,-0.59,9.87,0.00,-0.00,-0.00,2.20,-0.66,9.64,3938.4329,10552.3564,0.30
884873607,0.00,0.00,0.00,-0.04,-0.42,9.85,-0.01,-0.00,-0.00,0.20,-0.24,9.88,-0.00,0.00,-0.00,0.06,-0.49,9.82,-0.00,0.00,0.00,0.38,-0.63,9.86,0.00,-0.00,-0.00,2.15,-0.68,9.63,3938.4329,10552.3564,0.30
884877930,0.00,0.00,0.00,-0.06,-0.46,9.82,-0.00,-0.00,0.00,0.20,-0.20,9.91,-0.00,0.00,-0.00,0.07,-0.50,9.83,-0.00,0.00,-0.00,0.37,-0.60,9.88,0.00,-0.00,-0.00,2.17,-0.67,9.62,3938.4329,10552.3564,0.30
884882352,0.00,-0.00,0.00,-0.02,-0.43,9.82,-0.00,-0.00,0.00,0.21,-0.24,9.92,-0.00,0.00,0.00,0.09,-0.46,9.82,-0.00,0.00,0.00,0.37,-0.58,9.86,0.00,-0.00,-0.00,2.20,-0.68,9.62,3938.4329,10552.3564,0.30
884886762,-0.00,-0.00,0.00,0.00,-0.46,9.84,-0.00,-0.00,0.00,0.21,-0.23,9.91,-0.00,0.00,-0.00,0.05,-0.49,9.86,-0.00,0.00,0.00,0.36,-0.58,9.91,0.00,-0.00,-0.00,2.19,-0.70,9.64,3938.4329,10552.3564,0.30
884891146,-0.00,0.00,-0.00,-0.03,-0.47,9.84,-0.00,-0.00,-0.00,0.20,-0.20,9.90,-0.01,0.00,-0.00,0.06,-0.43,9.85,-0.00,0.00,-0.00,0.38,-0.58,9.88,-0.00,-0.00,-0.00,2.18,-0.67,9.64,3938.4329,10552.3564,0.30
884895560,-0.00,-0.00,-0.00,-0.03,-0.46,9.84,-0.00,-0.00,0.00,0.21,-0.22,9.88,-0.00,0.00,-0.00,0.05,-0.46,9.82,-0.00,0.00,0.00,0.38,-0.60,9.92,0.00,-0.00,-0.00,2.16,-0.66,9.63,3938.4329,10552.3564,0.30
884899873,-0.00,-0.00,0.00,-0.01,-0.44,9.81,-0.01,-0.00,-0.00,0.24,-0.21,9.89,-0.01,0.00,-0.00,0.08,-0.47,9.83,-0.01,0.00,-0.00,0.39,-0.55,9.90,-0.00,-0.00,0.00,2.20,-0.65,9.66,3938.4329,10552.3564,0.30
884904199,-0.01,-0.00,0.00,-0.05,-0.46,9.86,-0.01,-0.00,0.00,0.19,-0.19,9.88,-0.00,0.00,-0.00,0.08,-0.50,9.82,-0.00,0.00,-0.00,0.37,-0.58,9.90,-0.00,-0.00,-0.00,2.19,-0.67,9.64,3938.4329,10552.3564,0.30
884908493,-0.01,-0.00,0.00,-0.05,-0.47,9.81,-0.01,-0.00,0.00,0.19,-0.23,9.89,-0.01,0.00,-0.00,0.06,-0.47,9.82,-0.01,0.00,0.00,0.40,-0.59,9.86,-0.00,-0.00,0.00,2.14,-0.67,9.67,3938.4329,10552.3564,0.30
884912576,-0.01,-0.00,0.00,0.01,-0.48,9.84,-0.01,-0.00,-0.00,0.21,-0.22,9.88,-0.01,0.00,-0.00,0.09,-0.49,9.87,-0.01,0.00,-0.00,0.41,-0.57,9.91,-0.00,-0.00,0.00,2.12,-0.68,9.66,3938.4329,10552.3564,0.30
884916746,-0.01,-0.00,-0.00,-0.03,-0.41,9.85,-0.01,-0.00,-0.00,0.24,-0.21,9.87,-0.01,0.00,-0.00,0.08,-0.46,9.82,-0.01,0.00,-0.00,0.37,-0.62,9.86,-0.00,-0.01,-0.00,2.16,-0.65,9.66,3938.4329,10552.3564,0.30
884925497,-0.01,-0.00,0.00,-0.04,-0.45,9.83,-0.01,-0.00,-0.00,0.23,-0.21,9.86,-0.01,0.00,-0.00,0.09,-0.50,9.85,-0.01,0.00,-0.00,0.42,-0.59,9.91,-0.00,-0.00,0.00,2.20,-0.65,9.60,3938.4329,10552.3564,0.30
884929584,-0.01,-0.00,0.00,-0.03,-0.47,9.84,-0.01,-0.00,-0.00,0.20,-0.21,9.89,-0.01,0.00,0.00,0.07,-0.46,9.86,-0.01,0.00,-0.00,0.38,-0.60,9.88,-0.00,-0.00,-0.00,2.17,-0.67,9.63,3938.4329,10552.3564,0.30
884933571,-0.00,-0.00,0.00,-0.04,-0.44,9.85,-0.01,-0.00,0.00,0.22,-0.23,9.87,-0.01,0.00,-0.00,0.06,-0.49,9.85,-0.01,-0.00,0.00,0.41,-0.63,9.88,-0.00,-0.00,-0.00,2.15,-0.66,9.59,3938.4329,10552.3564,0.30
884937557,-0.00,0.00,-0.00,-0.03,-0.47,9.81,-0.01,-0.00,-0.00,0.21,-0.21,9.90,-0.01,0.00,-0.00,0.04,-0.52,9.82,-0.01,0.00,0.00,0.40,-0.59,9.86,-0.00,-0.00,0.00,2.16,-0.64,9.61,3938.4329,10552.3564,0.30
884941926,-0.00,-0.00,0.00,-0.03,-0.48,9.81,-0.01,-0.00,0.00,0.19,-0.22,9.91,-0.01,0.00,-0.00,0.02,-0.46,9.84,-0.01,0.00,-0.00,0.35,-0.57,9.86,-0.00,-0.00,-0.00,2.11,-0.66,9.65,3938.4329,10552.3564,0.30
884946326,-0.00,-0.00,-0.00,-0.05,-0.42,9.85,-0.01,-0.00,-0.00,0.19,-0.20,9.84,-0.01,0.00,-0.00,0.06,-0.47,9.85,-0.01,0.00,0.00,0.39,-0.58,9.90,-0.00,-0.00,0.00,2.15,-0.65,9.63,3938.4329,10552.3564,0.30
884950778,-0.00,-0.00,-0.00,-0.03,-0.47,9.84,-0.01,-0.00,0.00,0.21,-0.22,9.90,-0.01,0.00,-0.00,0.08,-0.43,9.84,-0.00,0.00,-0.00,0.33,-0.60,9.85,-0.00,-0.00,-0.00,2.16,-0.70,9.65,3938.4329,10552.3564,0.30
884955206,-0.00,-0.00,-0.00,-0.04,-0.46,9.81,-0.01,-0.00,0.00,0.19,-0.24,9.88,-0.01,0.00,-0.00,0.06,-0.45,9.85,-0.00,0.00,-0.00,0.35,-0.55,9.89,-0.00,-0.00,0.00,2.17,-0.70,9.62,3938.4329,10552.3564,0.30
884959575,-0.00,-0.00,-0.00,-0.05,-0.48,9.83,-0.01,-0.00,-0.00,0.23,-0.25,9.84,-0.01,0.00,-0.00,0.04,-0.46,9.87,-0.01,0.00,0.00,0.37,-0.63,9.88,-0.00,-0.01,0.00,2.17,-0.67,9.64,3938.4329,10552.3564,0.30
884963947,-0.01,-0.00,0.00,-0.06,-0.48,9.84,-0.01,-0.00,0.00,0.20,-0.24,9.87,-0.01,-0.00,-0.00,0.06,-0.44,9.83,-0.01,0.00,0.00,0.34,-0.59,9.91,-0.00,-0.01,0.00,2.18,-0.69,9.63,3938.4329,10552.3564,0.30
884968253,-0.01,-0.00,-0.00,-0.02,-0.43,9.86,-0.01,-0.00,-0.00,0.17,-0.23,9.86,-0.01,0.00,-0.00,0.09,-0.50,9.82,-0.01,0.00,-0.00,0.36,-0.61,9.86,-0.01,-0.00,-0.00,2.14,-0.69,9.67,3938.4329,10552.3564,0.30
884972556,-0.01,-0.00,0.00,-0.03,-0.45,9.81,-0.01,-0.00,0.00,0.21,-0.22,9.91,-0.01,0.00,-0.00,0.05,-0.43,9.86,-0.01,0.00,-0.00,0.37,-0.62,9.92,-0.00,-0.00,-0.00,2.16,-0.67,9.59,3938.4329,10552.3564,0.30
884976848,-0.01,0.00,0.00,-0.04,-0.48,9.85,-0.01,-0.00,0.00,0.17,-0.23,9.87,-0.01,0.00,-0.00,0.10,-0.47,9.84,-0.01,0.00,0.00,0.36,-0.57,9.87,-0.00,-0.00,0.00,2.14,-0.65,9.62,3938.4329,10552.3564,0.30
884981180,-0.01,-0.00,0.00,-0.03,-0.47,9.85,-0.01,-0.00,0.00,0.21,-0.24,9.88,-0.01,-0.00,-0.00,0.05,-0.49,9.85,-0.01,-0.00,-0.00,0.38,-0.60,9.85,-0.01,-0.00,0.00,2.13,-0.68,9.60,3938.4329,10552.3564,0.30
884985644,-0.01,-0.00,0.00,-0.02,-0.46,9.84,-0.01,-0.00,0.00,0.18,-0.24,9.87,-0.01,0.00,-0.00,0.09,-0.46,9.84,-0.01,0.00,0.00,0.37,-0.58,9.88,-0.00,-0.00,0.00,2.18,-0.67,9.63,3938.4329,10552.3564,0.30
884990092,-0.01,-0.00,0.00,0.01,-0.47,9.85,-0.01,-0.00,-0.00,0.20,-0.27,9.86,-0.01,0.00,-0.00,0.09,-0.46,9.82,-0.01,0.00,-0.00,0.36,-0.58,9.86,-0.01,-0.01,0.00,2.11,-0.67,9.65,3938.4329,10552.3564,0.30
884995960,-0.01,0.00,0.00,-0.06,-0.43,9.78,-0.01,-0.00,-0.00,0.18,-0.22,9.87,-0.01,0.00,-0.00,0.10,-0.50,9.85,-0.01,0.00,0.00,0.36,-0.60,9.88,-0.01,-0.00,0.00,2.15,-0.66,9.64,3938.4329,10552.3564,0.30
885000305,-0.01,-0.00,0.00,-0.03,-0.47,9.84,-0.01,-0.00,0.00,0.21,-0.20,9.90,-0.01,0.00,-0.00,0.06,-0.48,9.83,-0.01,0.00,0.00,0.36,-0.59,9.89,-0.00,-0.00,0.00,2.16,-0.66,9.62,3938.4329,10552.3564,0.30
885004346,-0.01,0.00,0.00,-0.05,-0.48,9.81,-0.01,-0.00,0.00,0.23,-0.20,9.87,-0.01,0.00,0.00,0.09,-0.50,9.82,-0.01,0.00,-0.00,0.34,-0.59,9.89,-0.00,-0.00,0.00,2.18,-0.68,9.64,3938.4329,10552.3564,0.30
885008434,-0.01,-0.00,0.00,-0.02,-0.43,9.84,-0.01,-0.00,-0.00,0.24,-0.24,9.86,-0.01,0.00,-0.00,0.08,-0.43,9.82,-0.01,0.00,0.00,0.36,-0.58,9.88,-0.00,-0.01,0.00,2.14,-0.65,9.64,3938.4329,10552.3564,0.30
885013610,-0.01,-0.00,0.00,-0.05,-0.43,9.84,-0.01,-0.00,0.00,0.22,-0.26,9.85,-0.01,0.00,-0.00,0.07,-0.50,9.85,-0.01,0.00,-0.00,0.38,-0.60,9.89,-0.00,-0.00,0.00,2.16,-0.66,9.66,3938.4329,10552.3564,0.30
885017746,-0.01,-0.00,-0.00,0.00,-0.47,9.82,-0.01,-0.00,0.00,0.21,-0.19,9.86,-0.01,0.00,-0.00,0.11,-0.47,9.85,-0.01,-0.00,0.00,0.38,-0.63,9.86,-0.00,-0.01,-0.00,2.18,-0.66,9.64,3938.4329,10552.3564,0.30
885021857,-0.01,-0.00,0.00,0.01,-0.44,9.81,-0.01,-0.00,0.00,0.24,-0.25,9.86,-0.01,0.00,-0.00,0.11,-0.49,9.87,-0.01,0.00,0.00,0.41,-0.57,9.87,-0.00,-0.00,0.00,2.16,-0.61,9.62,3938.4329,10552.3564,0.30
885025973,-0.01,-0.00,0.00,0.01,-0.49,9.85,-0.01,-0.00,0.00,0.24,-0.18,9.84,-0.01,0.00,-0.00,0.09,-0.46,9.88,-0.01,0.00,-0.00,0.39,-0.60,9.87,-0.00,-0.00,0.00,2.17,-0.71,9.60,3938.4329,10552.3564,0.30
885030389,-0.01,-0.00,0.00,-0.01,-0.44,9.83,-0.01,-0.00,0.00,0.20,-0.21,9.90,-0.01,0.00,-0.00,0.07,-0.46,9.84,-0.01,0.00,-0.00,0.38,-0.61,9.89,-0.00,-0.00,-0.00,2.15,-0.67,9.62,3938.4329,10552.3564,0.30
885034716,-0.01,-0.00,-0.00,0.00,-0.46,9.81,-0.01,-0.00,-0.00,0.21,-0.22,9.92,-0.01,0.00,-0.00,0.10,-0.47,9.86,-0.01,0.00,0.00,0.40,-0.61,9.91,-0.00,-0.00,0.00,2.17,-0.65,9.66,3938.4329,10552.3564,0.30
885039049,-0.01,-0.00,0.00,-0.04,-0.45,9.85,-0.01,-0.01,0.00,0.19,-0.23,9.89,-0.01,0.00,-0.00,0.10,-0.46,9.87,-0.01,0.00,0.00,0.39,-0.58,9.86,-0.00,-0.00,0.00,2.19,-0.67,9.56,3938.4329,10552.3564,0.30
885043351,-0.01,-0.00,0.00,-0.03,-0.44,9.85,-0.01,-0.00,0.00,0.23,-0.25,9.88,-0.01,0.00,-0.00,0.07,-0.45,9.86,-0.01,0.00,0.00,0.36,-0.63,9.87,-0.01,-0.00,0.00,2.14,-0.66,9.62,3938.4329,10552.3564,0.30
885047694,-0.01,0.00,-0.00,-0.02,-0.50,9.82,-0.01,-0.00,0.00,0.23,-0.24,9.85,-0.01,0.00,-0.00,0.08,-0.43,9.86,-0.01,0.00,-0.00,0.42,-0.61,9.86,-0.00,-0.00,0.00,2.13,-0.65,9.60,3938.4329,10552.3564,0.30
885052130,-0.01,-0.00,0.00,-0.05,-0.46,9.87,-0.01,-0.00,0.00,0.19,-0.24,9.89,-0.01,0.00,-0.00,0.08,-0.48,9.83,-0.01,0.00,-0.00,0.41,-0.63,9.87,-0.00,-0.00,0.00,2.18,-0.66,9.64,3938.4329,10552.3564,0.30
885056572,-0.00,0.00,0.00,-0.06,-0.48,9.85,-0.01,-0.00,0.00,0.21,-0.22,9.87,-0.01,0.00,-0.00,0.03,-0.43,9.85,-0.01,0.00,-0.00,0.40,-0.61,9.93,-0.00,-0.00,0.00,2.16,-0.66,9.62,3938.4329,10552.3564,0.30
885060973,-0.00,0.00,0.00,-0.04,-0.45,9.84,-0.01,-0.00,0.00,0.23,-0.22,9.84,-0.01,0.00,-0.00,0.07,-0.45,9.84,-0.01,0.00,-0.00,0.36,-0.62,9.90,-0.00,-0.00,0.00,2.15,-0.65,9.62,3938.4329,10552.3564,0.30
885065309,-0.00,-0.00,0.00,-0.03,-0.51,9.83,-0.01,-0.00,0.00,0.23,-0.21,9.87,-0.01,0.00,-0.00,0.08,-0.45,9.88,-0.01,0.00,-0.00,0.40,-0.62,9.90,-0.00,-0.00,-0.00,2.16,-0.69,9.62,3938.4329,10552.3564,0.30
885069565,-0.00,-0.00,0.00,-0.05,-0.44,9.82,-0.01,-0.00,-0.00,0.21,-0.21,9.86,-0.01,0.00,-0.00,0.06,-0.45,9.84,-0.00,0.00,-0.00,0.38,-0.63,9.86,-0.00,-0.00,0.00,2.16,-0.68,9.63,3938.4329,10552.3564,0.30
885073912,-0.00,-0.00,0.00,-0.03,-0.48,9.82,-0.01,-0.00,0.00,0.19,-0.20,9.85,-0.01,0.00,-0.00,0.07,-0.47,9.84,-0.00,0.00,-0.00,0.38,-0.58,9.90,-0.00,-0.00,0.00,2.14,-0.66,9.64,3938.4329,10552.3564,0.30
885078286,-0.00,-0.00,0.00,-0.06,-0.48,9.83,-0.01,-0.00,-0.00,0.17,-0.24,9.89,-0.01,0.00,-0.00,0.07,-0.49,9.82,-0.01,0.00,-0.00,0.37,-0.59,9.89,-0.00,-0.00,-0.00,2.13,-0.68,9.60,3938.4329,10552.3564,0.30
885082697,-0.00,-0.00,0.00,-0.04,-0.48,9.84,-0.01,-0.00,-0.00,0.23,-0.24,9.86,-0.01,0.00,0.00,0.07,-0.47,9.83,-0.01,-0.00,-0.00,0.41,-0.60,9.89,0.00,-0.00,0.00,2.14,-0.70,9.66,3938.4329,10552.3564,0.30
885087109,-0.00,0.00,0.00,-0.03,-0.48,9.84,-0.01,-0.00,-0.00,0.20,-0.21,9.87,-0.01,0.00,-0.00,0.09,-0.50,9.82,-0.00,0.00,0.00,0.39,-0.59,9.88,-0.00,-0.00,0.00,2.14,-0.67,9.59,3938.4329,10552.3564,0.30
885091255,-0.00,-0.00,-0.00,-0.03,-0.48,9.83,-0.00,-0.00,0.00,0.19,-0.23,9.90,-0.01,0.00,-0.00,0.08,-0.47,9.84,-0.01,0.00,-0.00,0.34,-0.60,9.85,-0.00,-0.00,0.00,2.18,-0.69,9.63,3938.4329,10552.3564,0.30
885095364,-0.00,0.00,-0.00,-0.03,-0.48,9.85,-0.01,-0.00,0.00,0.21,-0.22,9.89,-0.01,0.00,-0.00,0.06,-0.51,9.82,-0.00,0.00,-0.00,0.36,-0.60,9.89,0.00,-0.00,0.00,2.14,-0.70,9.62,3938.4329,10552.3564,0.30
885100547,-0.00,0.00,0.00,-0.05,-0.48,9.80,-0.00,-0.00,0.00,0.22,-0.23,9.88,-0.00,0.00,-0.00,0.07,-0.49,9.87,-0.00,0.00,-0.00,0.40,-0.59,9.88,0.00,-0.00,-0.00,2.16,-0.69,9.63,3938.4329,10552.3564,0.30
885104608,-0.00,-0.00,0.00,-0.01,-0.48,9.86,-0.01,-0.00,0.00,0.18,-0.27,9.85,-0.00,0.00,-0.00,0.10,-0.47,9.84,-0.00,0.00,0.00,0.37,-0.58,9.87,-0.00,-0.00,0.00,2.14,-0.67,9.60,3938.4329,10552.3564,0.30
885108617,-0.00,0.00,0.00,-0.03,-0.50,9.84,-0.01,-0.00,0.00,0.25,-0.22,9.89,-0.01,0.00,-0.00,0.09,-0.51,9.79,-0.00,0.00,0.00,0.35,-0.58,9.90,0.00,-0.00,-0.00,2.16,-0.67,9.62,3938.4329,10552.3564,0.30
885112662,-0.00,-0.00,0.00,-0.03,-0.47,9.82,-0.00,-0.00,0.00,0.24,-0.27,9.88,-0.01,0.00,-0.00,0.09,-0.47,9.88,-0.00,0.00,-0.00,0.38,-0.60,9.90,-0.00,-0.00,-0.00,2.19,-0.63,9.64,3938.4329,10552.3564,0.30
885117089,-0.00,-0.00,0.00,-0.02,-0.47,9.84,-0.01,-0.00,-0.00,0.20,-0.25,9.87,-0.00,0.00,0.00,0.06,-0.48,9.84,-0.00,0.00,0.00,0.41,-0.58,9.91,-0.00,-0.00,0.00,2.15,-0.68,9.62,3938.4329,10552.3564,0.30
885121553,-0.00,-0.00,0.00,-0.02,-0.47,9.87,-0.00,-0.00,0.00,0.21,-0.25,9.88,-0.00,0.00,-0.00,0.08,-0.49,9.85,-0.00,0.00,-0.00,0.39,-0.66,9.86,0.00,-0.00,-0.00,2.14,-0.69,9.65,3938.4329,10552.3564,0.30
885126008,-0.00,-0.00,-0.00,-0.05,-0.44,9.82,-0.00,-0.00,0.00,0.22,-0.22,9.87,-0.00,0.00,-0.00,0.09,-0.45,9.82,-0.00,0.00,-0.00,0.37,-0.60,9.87,0.00,-0.00,-0.00,2.16,-0.68,9.65,3938.4329,10552.3564,0.30
885131627,-0.00,0.00,0.00,-0.05,-0.48,9.83,-0.01,-0.00,0.00,0.23,-0.24,9.88,-0.01,0.00,-0.00,0.09,-0.46,9.82,-0.00,0.00,0.00,0.38,-0.59,9.87,0.00,-0.00,-0.00,2.18,-0.65,9.60,3938.4329,10552.3564,0.30
885135951,-0.00,-0.00,0.00,-0.06,-0.48,9.85,-0.00,-0.00,0.00,0.21,-0.25,9.86,-0.01,0.00,-0.00,0.09,-0.46,9.82,-0.00,0.00,-0.00,0.37,-0.61,9.90,-0.00,-0.00,0.00,2.18,-0.66,9.62,3938.4329,10552.3564,0.30
885140276,-0.00,0.00,0.00,-0.02,-0.48,9.84,-0.00,-0.00,-0.00,0.23,-0.20,9.88,-0.00,0.00,-0.00,0.09,-0.50,9.82,-0.00,0.00,0.00,0.36,-0.59,9.91,0.00,-0.00,-0.00,2.15,-0.69,9.64,3938.4329,10552.3564,0.30
885144590,-0.00,-0.00,0.00,-0.06,-0.45,9.83,-0.00,-0.00,0.00,0.20,-0.24,9.86,-0.00,0.00,-0.00,0.08,-0.47,9.80,-0.00,0.00,-0.00,0.43,-0.59,9.85,0.00,-0.00,0.00,2.16,-0.71,9.64,3938.4329,10552.3564,0.30
885148906,-0.00,-0.00,0.00,-0.03,-0.47,9.85,-0.01,-0.00,-0.00,0.18,-0.21,9.89,-0.01,0.00,-0.00,0.10,-0.46,9.84,-0.00,0.00,0.00,0.36,-0.59,9.88,0.00,-0.00,-0.00,2.19,-0.69,9.62,3938.4329,10552.3564,0.30
885153296,0.00,-0.00,0.00,-0.01,-0.45,9.84,-0.00,-0.00,0.00,0.21,-0.22,9.87,-0.00,0.00,-0.00,0.05,-0.47,9.82,-0.00,0.00,-0.00,0.39,-0.59,9.87,0.00,-0.00,-0.00,2.18,-0.68,9.60,3938.4329,10552.3564,0.30
885157718,0.00,0.00,-0.00,-0.03,-0.47,9.80,-0.00,-0.00,0.00,0.21,-0.23,9.85,-0.01,0.00,-0.00,0.12,-0.45,9.82,-0.00,0.00,0.00,0.37,-0.56,9.85,0.00,-0.00,-0.00,2.16,-0.66,9.65,3938.4329,10552.3564,0.30
885162162,0.00,-0.00,0.00,-0.06,-0.47,9.82,-0.00,-0.00,-0.00,0.19,-0.20,9.87,-0.00,0.00,-0.00,0.12,-0.48,9.84,-0.00,0.00,0.00,0.37,-0.60,9.87,0.00,-0.00,-0.00,2.15,-0.70,9.64,3938.4329,10552.3564,0.30
885166560,0.00,0.00,0.00,-0.03,-0.48,9.82,-0.00,-0.00,-0.00,0.23,-0.21,9.86,-0.00,0.00,-0.00,0.09,-0.49,9.84,-0.00,0.00,-0.00,0.40,-0.60,9.86,0.00,-0.01,-0.00,2.14,-0.67,9.65,3938.4329,10552.3564,0.30
885170909,0.00,0.00,0.00,-0.05,-0.47,9.86,-0.00,-0.00,0.00,0.23,-0.27,9.87,-0.00,0.00,0.00,0.05,-0.50,9.85,-0.00,0.00,0.00,0.38,-0.62,9.87,0.00,-0.00,-0.00,2.16,-0.65,9.63,3938.4329,10552.3564,0.30
885175251,0.00,0.00,0.00,-0.01,-0.43,9.81,-0.00,-0.00,0.00,0.16,-0.18,9.85,-0.00,0.00,-0.00,0.04,-0.47,9.82,0.00,0.00,0.00,0.36,-0.56,9.86,0.01,-0.00,-0.00,2.17,-0.69,9.65,3938.4329,10552.3564,0.30
885179342,0.00,-0.00,0.00,-0.04,-0.46,9.82,-0.01,-0.00,0.00,0.21,-0.24,9.88,-0.00,0.00,-0.00,0.09,-0.48,9.87,0.00,0.00,-0.00,0.34,-0.60,9.90,0.00,-0.00,-0.00,2.17,-0.70,9.62,3938.4329,10552.3564,0.30
885183485,0.00,0.00,0.00,-0.03,-0.47,9.82,-0.00,-0.00,0.00,0.23,-0.22,9.90,-0.00,0.00,-0.00,0.06,-0.43,9.82,-0.00,0.00,0.00,0.36,-0.59,9.90,0.00,-0.00,-0.00,2.18,-0.70,9.63,3938.4329,10552.3564,0.30
885187594,0.00,0.00,0.00,-0.03,-0.45,9.85,-0.00,-0.00,-0.00,0.25,-0.22,9.86,-0.00,0.00,-0.00,0.07,-0.47,9.82,-0.00,0.00,-0.00,0.42,-0.59,9.89,0.00,-0.00,-0.00,2.19,-0.68,9.65,3938.4329,10552.3564,0.30
885192765,0.00,0.00,0.00,0.00,-0.48,9.80,-0.00,-0.00,-0.00,0.22,-0.20,9.89,-0.00,0.00,-0.00,0.10,-0.45,9.82,-0.00,0.00,0.00,0.38,-0.60,9.87,0.00,-0.00,0.00,2.16,-0.71,9.61,3938.4329,10552.3564,0.30
885196883,0.00,-0.00,0.00,-0.03,-0.46,9.86,-0.00,-0.00,-0.00,0.23,-0.24,9.86,-0.00,0.00,-0.00,0.11,-0.47,9.86,0.00,0.00,0.00,0.44,-0.62,9.87,0.00,-0.00,0.00,2.18,-0.68,9.60,3938.4329,10552.3564,0.30
885200978,0.00,0.00,0.00,-0.04,-0.47,9.80,-0.01,-0.00,0.00,0.25,-0.23,9.87,-0.00,0.00,-0.00,0.10,-0.44,9.82,0.00,0.00,-0.00,0.44,-0.59,9.88,0.00,-0.00,0.00,2.18,-0.67,9.62,3938.4329,10552.3564,0.30
885205327,0.00,0.00,0.00,0.00,-0.46,9.83,-0.01,-0.00,-0.00,0.22,-0.26,9.88,-0.00,0.00,-0.00,0.08,-0.43,9.87,-0.00,0.00,-0.00,0.42,-0.59,9.85,0.00,-0.00,-0.00,2.17,-0.66,9.62,3938.4329,10552.3564,0.30
885209628,0.00,0.00,-0.00,-0.03,-0.44,9.86,-0.00,-0.00,0.00,0.22,-0.24,9.85,-0.00,0.00,-0.00,0.10,-0.46,9.83,-0.00,0.00,-0.00,0.38,-0.61,9.89,0.00,-0.00,-0.00,2.15,-0.67,9.60,3938.4329,10552.3564,0.30
885213935,0.00,-0.00,0.00,-0.04,-0.44,9.84,-0.00,-0.00,0.00,0.21,-0.21,9.88,-0.00,0.00,-0.00,0.11,-0.44,9.81,-0.00,0.00,-0.00,0.36,-0.60,9.88,0.00,-0.00,-0.00,2.17,-0.66,9.62,3938.4329,10552.3564,0.30
885218349,0.00,-0.00,0.00,-0.05,-0.50,9.83,-0.00,-0.00,0.00,0.21,-0.23,9.87,-0.00,0.00,-0.00,0.04,-0.50,9.85,-0.00,0.00,0.00,0.42,-0.58,9.87,0.00,-0.00,-0.00,2.19,-0.69,9.62,3938.4329,10552.3564,0.30
885222793,0.00,0.00,0.00,-0.02,-0.48,9.85,-0.00,-0.00,-0.00,0.21,-0.25,9.88,-0.00,0.00,-0.00,0.08,-0.48,9.83,0.00,0.00,-0.00,0.38,-0.61,9.88,0.00,-0.00,0.00,2.16,-0.66,9.62,3938.4329,10552.3564,0.30
885227240,0.00,-0.00,0.00,-0.02,-0.43,9.84,-0.00,-0.00,0.00,0.22,-0.23,9.87,-0.00,0.00,-0.00,0.09,-0.44,9.83,-0.00,-0.00,-0.00,0.40,-0.61,9.87,0.00,-0.00,0.00,2.16,-0.66,9.59,3938.4329,10552.3564,0.30
885231676,0.00,0.00,0.00,-0.04,-0.48,9.84,-0.00,-0.00,-0.00,0.18,-0.22,9.86,-0.00,0.00,-0.00,0.08,-0.47,9.87,0.00,0.00,0.00,0.33,-0.61,9.86,0.00,-0.00,0.00,2.16,-0.63,9.64,3938.4329,10552.3564,0.30
885236033,0.00,0.00,0.01,-0.04,-0.46,9.87,-0.00,-0.00,0.00,0.18,-0.21,9.87,-0.00,0.00,0.00,0.07,-0.47,9.85,0.00,0.00,0.00,0.37,-0.61,9.85,0.00,-0.00,-0.00,2.13,-0.66,9.64,3938.4329,10552.3564,0.30
885240354,0.00,0.00,0.00,-0.05,-0.48,9.84,-0.00,-0.00,0.00,0.19,-0.24,9.92,-0.00,0.00,0.00,0.06,-0.49,9.82,0.00,0.00,0.00,0.37,-0.62,9.89,0.00,-0.00,-0.00,2.13,-0.68,9.66,3938.4329,10552.3564,0.30
885244667,0.00,0.00,-0.00,-0.06,-0.44,9.90,-0.00,-0.00,0.00,0.18,-0.25,9.92,-0.00,0.00,0.00,0.06,-0.47,9.78,0.00,0.00,-0.00,0.38,-0.63,9.81,0.00,-0.00,-0.00,2.11,-0.71,9.64,3938.4329,10552.3564,0.30
885248942,0.00,0.00,0.00,-0.05,-0.50,9.81,0.00,-0.01,0.00,0.18,-0.21,9.86,-0.00,0.00,-0.00,0.07,-0.47,9.88,0.00,0.00,-0.00,0.36,-0.61,9.87,0.00,-0.00,-0.00,2.10,-0.67,9.63,3938.4329,10552.3564,0.30
885253362,0.00,0.00,0.00,-0.02,-0.46,9.82,-0.01,-0.00,-0.00,0.17,-0.25,9.83,-0.00,0.00,-0.00,0.07,-0.52,9.82,-0.00,0.00,-0.00,0.36,-0.55,9.89,0.00,0.00,-0.00,2.14,-0.69,9.66,3938.4329,10552.3564,0.30
885257824,0.00,0.00,-0.00,-0.06,-0.48,9.85,-0.00,-0.00,0.00,0.17,-0.21,9.91,-0.00,-0.00,0.00,0.07,-0.48,9.85,0.00,0.00,-0.00,0.34,-0.61,9.87,0.00,-0.00,-0.00,2.14,-0.71,9.65,3938.4329,10552.3564,0.30
885262292,-0.00,0.00,-0.00,0.00,-0.46,9.84,-0.00,-0.00,-0.00,0.17,-0.25,9.86,-0.00,0.00,-0.00,0.05,-0.46,9.89,-0.00,0.00,0.00,0.38,-0.62,9.86,0.00,-0.00,-0.00,2.15,-0.67,9.63,3938.4329,10552.3564,0.30
885268045,0.00,-0.00,-0.00,-0.02,-0.44,9.81,-0.00,-0.00,-0.00,0.20,-0.22,9.92,-0.01,0.00,-0.00,0.05,-0.46,9.88,-0.00,0.00,-0.00,0.35,-0.58,9.91,0.00,-0.00,-0.00,2.16,-0.68,9.62,3938.4329,10552.3564,0.30
885272127,-0.00,-0.00,0.00,-0.06,-0.47,9.84,-0.00,-0.00,-0.00,0.19,-0.23,9.88,-0.00,0.00,-0.00,0.09,-0.49,9.88,-0.00,0.00,0.00,0.35,-0.56,9.87,0.00,-0.00,-0.00,2.13,-0.69,9.63,3938.4329,10552.3564,0.30
885276208,-0.00,-0.00,-0.00,-0.04,-0.47,9.83,-0.00,-0.00,0.00,0.20,-0.24,9.86,-0.00,-0.00,0.00,0.08,-0.50,9.83,-0.00,0.00,-0.00,0.39,-0.60,9.90,-0.00,-0.00,-0.00,2.15,-0.66,9.66,3938.4329,10552.3564,0.30
885284940,-0.00,-0.00,0.00,-0.04,-0.47,9.85,-0.00,-0.00,0.00,0.17,-0.22,9.86,-0.00,0.00,-0.00,0.10,-0.48,9.87,-0.00,0.00,-0.00,0.34,-0.60,9.89,-0.00,-0.00,0.00,2.14,-0.69,9.61,3938.4329,10552.3564,0.30
885289039,-0.00,-0.00,0.00,-0.05,-0.51,9.80,-0.01,-0.00,0.00,0.18,-0.26,9.87,-0.01,0.00,-0.00,0.05,-0.51,9.82,-0.00,0.00,0.00,0.36,-0.60,9.89,-0.00,-0.00,-0.00,2.18,-0.65,9.63,3938.4329,10552.3564,0.30
885293127,-0.00,-0.00,0.00,-0.06,-0.44,9.84,-0.00,-0.01,0.00,0.19,-0.23,9.85,-0.00,0.00,-0.00,0.07,-0.45,9.84,-0.00,0.00,-0.00,0.36,-0.57,9.88,0.00,-0.00,0.00,2.15,-0.62,9.65,3938.4329,10552.3564,0.30
885297230,-0.00,0.00,0.00,-0.06,-0.50,9.82,-0.00,-0.00,0.00,0.21,-0.22,9.89,-0.00,0.00,-0.00,0.09,-0.47,9.82,-0.00,0.00,-0.00,0.35,-0.58,9.86,0.00,-0.00,-0.00,2.16,-0.66,9.64,3938.4329,10552.3564,0.30
885301681,-0.00,-0.00,0.00,-0.05,-0.47,9.83,-0.00,-0.00,0.00,0.19,-0.21,9.85,-0.00,0.00,-0.00,0.09,-0.48,9.84,-0.00,0.00,0.00,0.39,-0.62,9.84,0.00,-0.00,0.00,2.16,-0.66,9.60,3938.4329,10552.3564,0.30
885306051,-0.00,0.00,0.00,-0.06,-0.44,9.82,-0.00,-0.00,0.00,0.19,-0.17,9.87,-0.00,0.00,-0.00,0.08,-0.47,9.82,-0.00,0.00,-0.00,0.37,-0.61,9.84,0.00,-0.00,0.00,2.14,-0.69,9.65,3938.4329,10552.3564,0.30
885310385,0.00,0.00,0.00,-0.03,-0.50,9.83,-0.00,-0.00,0.00,0.21,-0.23,9.90,-0.00,0.00,0.00,0.06,-0.50,9.80,-0.00,0.00,0.00,0.40,-0.58,9.87,-0.00,-0.00,0.00,2.10,-0.68,9.63,3938.4329,10552.3564,0.30
885314663,0.00,0.00,0.00,-0.06,-0.43,9.82,-0.00,-0.00,-0.00,0.18,-0.19,9.89,-0.00,0.00,-0.00,0.06,-0.48,9.82,-0.00,0.00,-0.00,0.37,-0.58,9.86,0.00,-0.00,-0.00,2.17,-0.66,9.65,3938.4329,10552.3564,0.30
885318962,0.00,0.00,0.00,-0.01,-0.48,9.85,-0.00,-0.00,0.00,0.22,-0.23,9.87,-0.00,0.00,-0.00,0.06,-0.45,9.87,0.00,0.00,0.00,0.37,-0.62,9.89,0.00,-0.00,-0.00,2.14,-0.67,9.62,3938.4329,10552.3564,0.30
885323391,0.00,0.00,-0.00,-0.01,-0.48,9.83,-0.00,-0.00,0.00,0.21,-0.25,9.86,-0.00,0.00,-0.00,0.08,-0.44,9.84,-0.00,0.00,-0.00,0.34,-0.62,9.87,0.00,-0.00,0.00,2.16,-0.64,9.64,3938.4329,10552.3564,0.30
885327815,0.00,0.00,0.00,-0.04,-0.47,9.85,0.00,-0.00,0.00,0.20,-0.24,9.88,-0.00,0.00,-0.00,0.10,-0.47,9.82,-0.00,0.00,0.00,0.40,-0.60,9.89,0.01,-0.00,-0.00,2.15,-0.71,9.63,3938.4329,10552.3564,0.30
885332213,0.00,-0.00,0.00,-0.06,-0.48,9.82,0.00,-0.00,0.00,0.20,-0.25,9.88,-0.00,0.00,-0.00,0.03,-0.46,9.88,0.00,0.00,-0.00,0.39,-0.58,9.89,0.00,-0.00,-0.00,2.15,-0.66,9.63,3938.4329,10552.3564,0.30
885336581,0.00,0.00,0.00,-0.03,-0.48,9.84,-0.00,-0.00,-0.00,0.21,-0.22,9.87,-0.00,0.00,0.00,0.11,-0.52,9.82,0.00,0.00,-0.00,0.39,-0.61,9.90,0.00,-0.00,-0.00,2.14,-0.69,9.60,3938.4329,10552.3564,0.30
885340877,0.00,-0.00,0.00,-0.01,-0.43,9.79,-0.00,-0.00,0.00,0.19,-0.22,9.87,-0.00,0.00,-0.00,0.06,-0.48,9.85,0.00,0.00,-0.00,0.39,-0.62,9.88,0.00,-0.00,-0.00,2.15,-0.70,9.64,3938.4329,10552.3564,0.30
885345224,0.00,0.00,0.00,-0.05,-0.43,9.82,-0.00,-0.00,0.00,0.24,-0.25,9.86,-0.00,0.00,-0.00,0.08,-0.47,9.83,0.00,0.00,0.00,0.36,-0.59,9.91,0.00,-0.00,-0.00,2.17,-0.69,9.61,3938.4329,10552.3564,0.30
885349519,0.00,0.00,-0.00,-0.05,-0.48,9.83,-0.00,-0.00,0.00,0.21,-0.23,9.85,-0.00,0.00,-0.00,0.08,-0.47,9.85,0.00,0.00,0.00,0.36,-0.62,9.86,0.00,-0.00,-0.00,2.14,-0.65,9.62,3938.4329,10552.3564,0.30
885353903,0.00,0.00,0.00,-0.05,-0.48,9.85,-0.00,-0.00,-0.00,0.18,-0.22,9.88,-0.00,0.00,-0.00,0.08,-0.46,9.86,-0.00,0.00,-0.00,0.40,-0.58,9.85,0.00,-0.00,0.00,2.17,-0.68,9.65,3938.4329,10552.3564,0.30
885358281,0.00,-0.00,0.00,-0.01,-0.47,9.85,-0.00,-0.00,-0.00,0.18,-0.23,9.88,-0.00,0.00,-0.00,0.08,-0.47,9.84,-0.00,0.00,-0.00,0.41,-0.62,9.85,0.00,-0.00,-0.00,2.16,-0.68,9.61,3938.4329,10552.3564,0.30
885362360,0.00,0.00,0.00,-0.01,-0.47,9.83,-0.00,-0.00,0.00,0.19,-0.21,9.88,-0.00,0.00,-0.00,0.08,-0.50,9.84,0.00,0.00,-0.00,0.37,-0.61,9.87,0.00,-0.00,0.00,2.18,-0.69,9.61,3938.4329,10552.3564,0.30
885366486,0.00,-0.00,0.00,-0.06,-0.48,9.85,0.00,-0.00,0.00,0.22,-0.23,9.87,-0.00,0.00,-0.00,0.05,-0.45,9.84,0.00,0.00,0.00,0.43,-0.62,9.87,0.00,-0.00,-0.00,2.15,-0.65,9.64,3938.4329,10552.3564,0.30
885370657,0.01,0.00,0.00,-0.02,-0.47,9.85,-0.00,-0.00,0.00,0.19,-0.21,9.86,-0.00,0.00,-0.00,0.05,-0.45,9.82,0.00,0.00,-0.00,0.36,-0.62,9.90,0.00,-0.00,0.00,2.14,-0.69,9.64,3938.4329,10552.3564,0.30
885375706,0.00,0.00,0.00,-0.01,-0.48,9.83,-0.00,-0.00,-0.00,0.22,-0.19,9.84,-0.00,0.00,-0.00,0.04,-0.50,9.82,0.00,0.00,-0.00,0.37,-0.55,9.88,0.00,-0.00,-0.00,2.18,-0.65,9.66,3938.4329,10552.3564,0.30
885379763,0.01,0.00,0.00,0.01,-0.47,9.82,-0.00,-0.00,0.00,0.18,-0.23,9.84,-0.00,0.00,-0.00,0.10,-0.48,9.84,0.00,0.00,-0.00,0.42,-0.58,9.89,0.01,-0.00,-0.00,2.15,-0.70,9.62,3938.4329,10552.3564,0.30
885383821,0.00,-0.00,0.00,-0.04,-0.47,9.87,0.00,-0.00,0.00,0.20,-0.22,9.85,0.00,0.00,0.00,0.04,-0.45,9.82,0.00,0.00,0.00,0.36,-0.65,9.88,0.00,-0.00,-0.00,2.20,-0.67,9.63,3938.4329,10552.3564,0.30
885388226,0.01,0.00,0.00,-0.05,-0.48,9.85,-0.00,-0.00,0.00,0.21,-0.21,9.88,0.00,0.00,-0.00,0.09,-0.53,9.84,0.00,0.00,0.00,0.40,-0.58,9.85,0.00,-0.00,0.00,2.18,-0.68,9.62,3938.4329,10552.3564,0.30
885392642,0.01,0.00,0.00,-0.04,-0.43,9.82,0.00,-0.00,-0.00,0.21,-0.21,9.87,0.00,0.00,-0.00,0.11,-0.49,9.82,0.00,0.00,0.00,0.32,-0.60,9.88,0.01,-0.00,0.00,2.19,-0.71,9.61,3938.4329,10552.3564,0.30
885397013,0.00,0.00,-0.00,-0.06,-0.48,9.85,0.00,-0.00,0.00,0.20,-0.22,9.88,0.00,0.00,-0.00,0.09,-0.46,9.85,0.00,0.00,0.00,0.40,-0.58,9.89,0.01,-0.00,-0.00,2.15,-0.67,9.63,3938.4329,10552.3564,0.30
885402938,0.01,-0.00,-0.00,-0.04,-0.43,9.80,0.00,-0.00,0.00,0.20,-0.22,9.87,0.00,0.00,-0.00,0.09,-0.46,9.82,0.00,0.00,0.00,0.35,-0.59,9.91,0.01,-0.00,0.00,2.19,-0.60,9.62,3938.4329,10552.3564,0.30
885407345,0.01,0.00,-0.00,-0.04,-0.46,9.83,0.00,0.00,-0.00,0.23,-0.23,9.87,0.00,0.00,-0.00,0.06,-0.49,9.86,0.00,0.00,0.00,0.38,-0.58,9.88,0.01,-0.00,-0.00,2.16,-0.69,9.64,3938.4329,10552.3564,0.30
