483839363,-0.01,-0.00,-0.00,0.16,-0.34,9.66,-0.01,-0.01,0.00,0.27,-0.02,10.20,-0.01,-0.01,0.00,0.25,-0.27,9.83,-0.01,-0.01,0.00,0.32,-0.23,10.04,-0.02,-0.01,0.00,2.38,-0.19,9.09,3938.4287,10552.3740,0.67
483849902,0.01,-0.00,0.00,0.15,-0.47,9.60,0.01,-0.00,-0.00,0.32,-0.22,9.46,0.02,-0.00,0.00,0.20,-0.53,9.67,0.02,-0.00,0.00,0.44,-0.69,9.65,0.03,-0.01,-0.00,2.23,-0.84,9.15,3938.4287,10552.3740,0.67
483853923,0.02,0.00,0.00,0.14,-0.40,9.85,0.03,-0.00,0.00,0.35,-0.17,9.80,0.03,-0.00,0.00,0.21,-0.32,9.88,0.04,-0.00,-0.00,0.44,-0.51,10.08,0.04,-0.01,-0.01,2.21,-0.58,9.12,3938.4287,10552.3740,0.67
483857925,0.02,-0.00,0.00,0.15,-0.34,10.03,0.02,-0.00,0.00,0.37,-0.04,10.12,0.02,0.00,0.00,0.18,-0.32,9.94,0.02,0.01,0.00,0.52,-0.41,9.99,0.02,0.00,-0.00,2.27,-0.42,9.48,3938.4287,10552.3740,0.67
483862259,0.02,-0.00,0.00,0.12,-0.38,9.81,0.01,-0.00,0.00,0.30,-0.15,9.85,0.01,0.00,0.00,0.17,-0.40,9.73,0.01,0.01,-0.00,0.46,-0.52,9.65,0.01,0.01,-0.00,2.21,-0.61,9.69,3938.4287,10552.3740,0.67
483866633,0.03,-0.00,0.00,0.14,-0.44,9.58,0.03,-0.00,0.00,0.33,-0.25,9.46,0.03,0.00,0.00,0.19,-0.51,9.51,0.03,0.00,-0.00,0.47,-0.64,9.70,0.03,0.00,-0.00,2.17,-0.77,9.47,3938.4287,10552.3740,0.67
483871062,0.06,0.00,0.00,0.14,-0.46,9.66,0.06,-0.00,0.00,0.34,-0.21,9.62,0.06,0.00,0.00,0.20,-0.49,9.59,0.07,-0.00,-0.00,0.45,-0.60,9.69,0.07,-0.00,-0.01,2.22,-0.77,9.67,3938.4287,10552.3740,0.67
483875497,0.07,0.00,0.01,0.08,-0.38,9.80,0.07,0.00,0.00,0.31,-0.15,9.90,0.07,0.00,0.00,0.20,-0.38,9.82,0.07,-0.00,0.00,0.43,-0.47,9.88,0.07,-0.00,-0.02,2.24,-0.52,9.57,3938.4287,10552.3740,0.67
483879872,0.07,0.00,0.00,0.10,-0.38,9.85,0.07,-0.00,0.00,0.32,-0.11,9.84,0.07,0.00,0.00,0.19,-0.33,9.86,0.06,0.00,-0.00,0.44,-0.50,9.94,0.06,0.00,-0.01,2.24,-0.57,9.40,3938.4287,10552.3740,0.67
483884201,0.08,0.00,0.00,0.13,-0.41,9.67,0.08,-0.00,0.00,0.33,-0.17,9.60,0.08,0.00,0.00,0.20,-0.47,9.53,0.07,0.00,-0.00,0.45,-0.55,9.57,0.07,0.00,-0.02,2.15,-0.70,9.45,3938.4287,10552.3740,0.67
483888465,0.10,0.00,0.01,0.13,-0.37,9.64,0.10,0.00,0.00,0.33,-0.17,9.62,0.10,0.00,0.00,0.19,-0.43,9.50,0.10,0.00,0.00,0.44,-0.55,9.61,0.10,-0.00,-0.02,2.21,-0.71,9.38,3938.4287,10552.3740,0.67
483892742,0.11,0.00,0.00,0.11,-0.37,9.81,0.11,0.00,0.00,0.32,-0.14,9.80,0.11,0.01,0.00,0.17,-0.37,9.78,0.12,0.00,-0.00,0.48,-0.55,9.80,0.12,0.00,-0.03,2.19,-0.59,9.35,3938.4287,10552.3740,0.67
483897043,0.12,0.00,0.00,0.17,-0.36,9.85,0.11,0.00,0.00,0.32,-0.09,9.83,0.11,0.01,0.00,0.21,-0.32,9.85,0.11,0.01,-0.00,0.45,-0.46,9.76,0.11,0.01,-0.02,2.18,-0.52,9.32,3938.4287,10552.3740,0.67
483901381,0.12,0.00,0.00,0.11,-0.35,9.79,0.12,0.00,0.00,0.34,-0.11,9.74,0.12,0.01,0.00,0.15,-0.37,9.68,0.11,0.01,-0.00,0.45,-0.49,9.72,0.11,0.01,-0.02,2.20,-0.65,9.43,3938.4287,10552.3740,0.67
483905775,0.13,0.00,0.00,0.10,-0.32,9.83,0.12,0.01,-0.00,0.37,-0.12,9.76,0.13,0.01,0.00,0.17,-0.40,9.68,0.13,0.01,-0.00,0.47,-0.54,9.71,0.13,0.01,-0.03,2.23,-0.66,9.45,3938.4287,10552.3740,0.67
483910210,0.13,0.00,0.00,0.11,-0.34,9.95,0.13,0.01,-0.00,0.35,-0.08,9.91,0.13,0.01,0.00,0.14,-0.36,9.87,0.13,0.01,-0.00,0.49,-0.48,9.97,0.13,0.01,-0.03,2.23,-0.51,9.59,3938.4287,10552.3740,0.67
483914604,0.12,0.00,0.00,0.10,-0.28,10.06,0.12,0.00,0.00,0.33,-0.05,9.97,0.12,0.01,0.00,0.20,-0.31,9.97,0.12,0.01,-0.00,0.44,-0.41,10.09,0.12,0.02,-0.02,2.30,-0.42,9.68,3938.4287,10552.3740,0.67
483918951,0.11,0.00,0.00,0.09,-0.31,9.91,0.10,0.01,0.00,0.35,-0.02,9.94,0.11,0.01,0.00,0.20,-0.31,9.90,0.11,0.01,-0.00,0.43,-0.43,10.00,0.11,0.02,-0.02,2.26,-0.50,9.90,3938.4287,10552.3740,0.67
483923233,0.11,0.00,0.00,0.16,-0.29,9.77,0.10,0.00,-0.00,0.33,-0.08,9.78,0.11,0.01,0.00,0.14,-0.35,9.91,0.10,0.01,-0.00,0.43,-0.46,10.05,0.11,0.01,-0.02,2.28,-0.54,9.94,3938.4287,10552.3740,0.67
483927282,0.10,0.00,0.00,0.14,-0.25,9.95,0.10,0.00,0.00,0.36,-0.04,9.94,0.10,0.00,0.00,0.20,-0.29,10.05,0.10,0.01,-0.00,0.47,-0.48,10.14,0.10,0.01,-0.02,2.32,-0.54,9.97,3938.4287,10552.3740,0.67
483931375,0.08,0.00,0.00,0.10,-0.25,10.20,0.08,-0.00,-0.00,0.34,0.07,10.25,0.09,0.00,0.00,0.17,-0.20,10.20,0.09,0.00,0.00,0.48,-0.38,10.37,0.09,0.00,-0.02,2.31,-0.43,10.00,3938.4287,10552.3740,0.67
483936549,0.04,-0.00,0.00,0.06,-0.18,10.18,0.03,-0.01,0.00,0.34,0.02,10.23,0.03,0.00,0.00,0.13,-0.20,10.05,0.03,0.00,-0.00,0.43,-0.34,10.64,0.03,0.01,-0.00,2.33,-0.25,10.15,3938.4287,10552.3740,0.67
483940670,0.01,-0.00,0.00,0.10,-0.21,10.14,0.01,-0.00,-0.00,0.31,0.00,10.09,0.00,-0.01,-0.00,0.12,-0.24,10.01,0.00,0.00,0.00,0.44,-0.38,10.30,-0.00,0.00,0.00,2.32,-0.49,10.17,3938.4287,10552.3740,0.67
483944782,0.00,-0.00,0.00,0.09,-0.26,9.88,0.00,-0.01,0.00,0.33,-0.05,9.99,0.00,-0.01,-0.00,0.12,-0.24,9.95,0.00,-0.01,-0.00,0.40,-0.40,9.98,0.00,-0.01,-0.00,2.25,-0.59,10.19,3938.4287,10552.3740,0.67
483950153,-0.01,-0.00,0.00,0.12,-0.23,10.08,-0.01,-0.01,-0.00,0.35,0.05,10.27,-0.00,-0.01,-0.00,0.17,-0.25,10.20,0.00,-0.01,0.00,0.44,-0.43,10.17,0.01,-0.02,-0.00,2.27,-0.46,9.92,3938.4287,10552.3740,0.67
483954309,-0.02,-0.00,0.00,0.14,-0.22,9.91,-0.02,-0.01,0.00,0.31,-0.02,9.98,-0.02,-0.01,0.00,0.19,-0.18,10.20,-0.02,-0.01,-0.00,0.47,-0.30,10.21,-0.02,-0.02,0.01,2.30,-0.32,9.75,3938.4287,10552.3740,0.67
483958575,-0.03,-0.01,-0.00,0.11,-0.24,9.89,-0.04,-0.01,0.00,0.32,0.03,9.89,-0.04,-0.01,-0.00,0.14,-0.26,9.82,-0.04,-0.01,0.00,0.44,-0.36,9.88,-0.04,-0.02,0.01,2.25,-0.52,9.70,3938.4287,10552.3740,0.67
483962866,-0.02,-0.00,0.00,0.09,-0.35,9.55,-0.02,-0.01,0.00,0.28,-0.13,9.48,-0.03,-0.01,-0.00,0.11,-0.38,9.41,-0.02,-0.01,0.00,0.41,-0.46,9.62,-0.02,-0.02,0.00,2.19,-0.59,9.31,3938.4287,10552.3740,0.67
483967240,0.01,0.00,0.00,0.08,-0.41,9.64,0.01,-0.00,-0.00,0.28,-0.13,9.68,0.01,-0.01,0.00,0.16,-0.41,9.41,0.01,-0.02,-0.00,0.41,-0.53,9.45,0.01,-0.03,-0.00,2.11,-0.64,9.12,3938.4287,10552.3740,0.67
483971622,0.05,-0.00,0.00,0.11,-0.52,9.36,0.04,-0.00,0.00,0.32,-0.21,9.45,0.04,-0.01,-0.00,0.16,-0.41,9.35,0.04,-0.01,0.00,0.44,-0.56,9.44,0.04,-0.02,-0.01,2.11,-0.60,8.93,3938.4287,10552.3740,0.67
483976018,0.08,0.00,0.00,0.13,-0.48,9.45,0.08,-0.00,0.00,0.31,-0.17,9.35,0.08,-0.00,0.00,0.08,-0.40,9.31,0.08,-0.01,-0.00,0.40,-0.52,9.09,0.08,-0.01,-0.02,2.01,-0.65,8.64,3938.4287,10552.3740,0.67
483980417,0.12,0.00,0.00,0.08,-0.37,9.35,0.13,-0.00,0.00,0.28,-0.14,9.32,0.13,0.00,0.00,0.20,-0.45,9.20,0.13,-0.00,-0.00,0.37,-0.56,9.03,0.12,0.00,-0.03,1.99,-0.70,8.56,3938.4287,10552.3740,0.67
483984762,0.17,0.01,0.00,0.08,-0.29,9.55,0.16,0.01,0.00,0.27,-0.11,9.42,0.17,0.01,0.00,0.13,-0.34,9.25,0.17,0.01,-0.00,0.39,-0.50,9.13,0.17,0.01,-0.03,1.98,-0.64,8.48,3938.4287,10552.3740,0.67
483989028,0.19,0.01,0.01,0.05,-0.31,9.31,0.19,0.01,0.00,0.32,-0.10,9.46,0.20,0.02,0.00,0.13,-0.31,9.34,0.20,0.02,-0.00,0.42,-0.39,9.43,0.20,0.03,-0.04,2.08,-0.49,8.61,3938.4287,10552.3740,0.67
483993284,0.23,0.01,0.00,0.12,-0.28,9.77,0.22,0.01,0.00,0.38,0.00,9.60,0.23,0.03,0.01,0.18,-0.19,9.49,0.22,0.03,-0.00,0.52,-0.32,9.12,0.22,0.04,-0.04,2.09,-0.53,8.90,3938.4287,10552.3740,0.67
483997580,0.26,0.01,0.01,0.09,-0.38,9.42,0.26,0.01,0.00,0.30,-0.09,9.37,0.26,0.03,0.01,0.11,-0.25,9.47,0.27,0.03,-0.00,0.41,-0.32,9.40,0.26,0.04,-0.05,2.05,-0.49,9.13,3938.4287,10552.3740,0.67
484001932,0.28,0.01,0.00,0.11,-0.22,9.72,0.28,0.02,-0.00,0.27,0.02,9.74,0.28,0.03,0.00,0.15,-0.18,9.95,0.29,0.03,-0.00,0.44,-0.20,9.75,0.29,0.04,-0.06,2.22,-0.34,9.53,3938.4287,10552.3740,0.67
484006329,0.29,0.01,0.00,0.11,-0.22,9.76,0.29,0.01,0.00,0.34,0.04,9.84,0.29,0.03,0.01,0.20,-0.20,9.89,0.29,0.02,0.00,0.43,-0.29,10.03,0.28,0.04,-0.05,2.26,-0.27,9.81,3938.4287,10552.3740,0.67
484010750,0.31,0.01,0.02,0.10,-0.16,9.60,0.30,0.01,0.00,0.30,0.09,9.52,0.30,0.02,0.01,0.13,-0.11,9.56,0.30,0.02,-0.00,0.45,-0.21,9.79,0.30,0.03,-0.06,2.27,-0.29,10.12,3938.4287,10552.3740,0.67
484014838,0.33,0.01,0.01,0.18,-0.24,9.42,0.33,0.01,0.00,0.37,0.05,9.40,0.34,0.02,0.01,0.15,-0.11,9.70,0.33,0.01,-0.00,0.46,-0.20,9.78,0.33,0.01,-0.07,2.26,-0.33,10.16,3938.4287,10552.3740,0.67
484018939,0.36,0.01,0.02,0.13,-0.11,9.47,0.35,0.01,0.00,0.33,0.15,9.39,0.36,0.01,0.01,0.17,-0.09,9.55,0.36,-0.00,-0.00,0.44,-0.29,10.11,0.36,0.00,-0.07,2.32,-0.47,9.96,3938.4287,10552.3740,0.67
484022978,0.38,0.01,0.02,0.14,-0.15,9.80,0.38,0.01,0.00,0.38,0.11,9.89,0.37,0.01,0.01,0.19,-0.07,9.67,0.37,-0.01,-0.00,0.44,-0.15,9.75,0.37,-0.01,-0.07,2.26,-0.13,9.58,3938.4287,10552.3740,0.67
484028023,0.40,0.01,0.01,0.06,-0.06,9.42,0.39,0.01,0.01,0.25,0.27,9.53,0.39,0.01,0.01,0.09,0.01,9.68,0.39,-0.01,0.00,0.40,-0.08,9.62,0.39,-0.01,-0.07,2.08,-0.03,9.19,3938.4287,10552.3740,0.67
484032059,0.42,0.01,0.02,0.07,-0.02,9.58,0.42,0.01,0.01,0.29,0.25,9.50,0.41,0.01,0.02,0.13,0.09,9.35,0.41,-0.01,0.00,0.41,-0.06,9.27,0.40,0.00,-0.08,2.04,-0.22,8.77,3938.4287,10552.3740,0.67
484036120,0.45,0.02,0.02,0.07,0.03,9.52,0.45,0.02,0.01,0.29,0.25,9.39,0.45,0.02,0.01,0.09,-0.01,9.16,0.46,-0.00,0.00,0.39,-0.13,9.03,0.45,0.01,-0.09,2.00,-0.38,8.65,3938.4287,10552.3740,0.67
484040247,0.49,0.02,0.01,-0.03,0.43,9.44,0.49,0.02,0.01,0.17,0.79,9.39,0.49,0.03,0.02,0.03,0.83,9.28,0.49,0.01,-0.00,0.34,0.63,9.25,0.49,0.02,-0.09,1.95,0.16,8.52,3938.4287,10552.3740,0.67
484044673,0.52,0.02,0.02,0.04,0.54,9.86,0.52,0.02,0.01,0.25,0.85,9.73,0.52,0.04,0.02,0.07,0.71,9.34,0.52,0.02,0.00,0.43,0.66,9.09,0.51,0.04,-0.09,1.91,0.57,8.33,3938.4287,10552.3740,0.67
484049064,0.54,0.03,0.03,0.04,0.47,9.52,0.54,0.03,0.01,0.22,0.88,9.53,0.54,0.04,0.03,0.04,0.82,9.56,0.54,0.04,0.00,0.38,0.75,9.23,0.53,0.06,-0.09,1.97,0.42,8.74,3938.4287,10552.3740,0.67
484053391,0.57,0.02,0.04,0.06,0.71,9.74,0.56,0.03,0.02,0.22,0.97,9.55,0.57,0.05,0.03,0.12,0.79,9.29,0.56,0.04,0.01,0.44,0.74,9.44,0.55,0.08,-0.10,1.95,0.51,8.94,3938.4287,10552.3740,0.67
484057697,0.59,0.03,0.04,-0.03,0.90,9.45,0.60,0.04,0.02,0.14,1.32,9.51,0.60,0.05,0.03,-0.03,1.30,9.39,0.61,0.05,0.01,0.28,1.31,9.12,0.60,0.07,-0.10,2.00,1.31,9.57,3938.4287,10552.3740,0.67
484061959,0.64,0.03,0.04,-0.11,1.81,9.36,0.63,0.04,0.02,0.08,2.16,9.16,0.64,0.05,0.04,-0.22,2.00,9.54,0.63,0.04,0.01,0.18,2.05,9.88,0.63,0.07,-0.10,1.89,2.27,9.87,3938.4287,10552.3740,0.67
484066258,0.68,0.03,0.06,-0.28,3.82,9.18,0.68,0.03,0.03,-0.12,4.74,8.81,0.69,0.05,0.05,-0.37,5.11,8.95,0.70,0.04,0.02,0.03,5.40,9.45,0.71,0.07,-0.11,1.61,5.84,10.42,3938.4287,10552.3740,0.67
484070614,0.75,0.04,0.09,-0.40,5.98,8.78,0.75,0.04,0.06,-0.19,7.44,8.68,0.76,0.05,0.08,-0.52,8.31,8.69,0.77,0.02,0.05,-0.05,9.37,8.83,0.78,0.03,-0.09,1.43,10.21,10.02,3938.4287,10552.3740,0.67
484075035,0.81,0.04,0.12,-0.43,7.98,9.70,0.80,0.05,0.09,-0.31,8.95,9.35,0.80,0.05,0.10,-0.71,9.29,9.86,0.81,0.01,0.08,-0.14,10.10,10.37,0.82,0.02,-0.07,1.20,10.94,9.09,3938.4287,10552.3740,0.67
484079420,0.83,0.04,0.15,-0.81,9.26,8.45,0.81,0.04,0.13,-0.70,10.26,10.20,0.81,0.04,0.16,-0.95,10.56,9.06,0.82,0.02,0.11,-0.63,11.58,9.19,0.82,0.05,-0.03,0.96,12.56,9.78,3938.4287,10552.3740,0.67
484085112,0.91,0.05,0.22,-0.76,9.07,8.41,0.91,0.06,0.19,-0.76,10.33,8.73,0.91,0.06,0.20,-1.14,11.53,9.11,0.93,0.02,0.18,-0.24,12.80,9.77,0.92,0.04,0.00,0.53,13.17,8.26,3938.4287,10552.3740,0.67
484089439,0.90,0.06,0.26,-1.28,7.99,9.61,0.89,0.06,0.22,-0.99,8.97,11.27,0.90,0.07,0.24,-1.38,10.54,9.58,0.92,0.04,0.22,-0.85,12.50,9.38,0.95,0.08,0.04,0.56,13.45,10.57,3938.4287,10552.3740,0.67
484093743,0.85,0.04,0.28,-0.78,8.65,11.11,0.84,0.07,0.27,-0.60,10.00,9.42,0.83,0.09,0.29,-1.09,10.48,11.52,0.84,0.06,0.26,-0.04,11.04,10.50,0.88,0.11,0.10,0.71,12.11,8.63,3938.4287,10552.3740,0.67
484098014,0.82,0.04,0.34,-1.05,8.14,11.86,0.82,0.07,0.31,-0.86,9.43,10.73,0.80,0.09,0.32,-1.20,9.18,12.40,0.80,0.10,0.31,-0.55,9.71,11.76,0.85,0.12,0.14,0.54,10.82,9.97,3938.4287,10552.3740,0.67
484102329,0.77,0.05,0.39,-1.32,6.60,10.30,0.78,0.06,0.35,-1.21,8.16,10.84,0.78,0.08,0.37,-1.53,8.28,9.60,0.79,0.11,0.33,-0.98,8.79,9.54,0.81,0.15,0.19,0.86,10.13,13.36,3938.4287,10552.3740,0.67
484106698,0.73,0.04,0.39,-1.26,4.58,10.74,0.74,0.07,0.38,-1.09,5.74,9.92,0.72,0.09,0.40,-1.33,6.42,9.94,0.71,0.08,0.37,-0.92,7.02,10.37,0.78,0.11,0.24,0.86,7.76,13.98,3938.4287,10552.3740,0.67
484110853,0.70,0.04,0.41,-1.46,5.27,12.60,0.66,0.06,0.40,-1.03,4.54,9.65,0.63,0.08,0.42,-1.71,4.58,12.69,0.65,0.06,0.39,-1.25,5.41,12.26,0.75,0.11,0.26,1.40,5.36,11.50,3938.4287,10552.3740,0.67
484114962,0.53,-0.01,0.44,-1.37,2.69,14.42,0.56,0.02,0.44,-1.22,5.16,11.23,0.50,0.11,0.58,-1.73,4.19,10.64,0.56,0.04,0.43,-0.47,2.33,16.79,0.69,0.05,0.30,0.47,2.75,13.43,3938.4287,10552.3740,0.67
484120096,0.46,-0.00,0.43,-1.84,2.01,8.74,0.44,0.00,0.41,-1.94,2.85,11.31,0.42,0.03,0.63,-1.39,3.38,10.82,0.44,-0.01,0.44,-1.51,4.84,12.79,0.63,-0.00,0.32,-0.90,4.19,14.43,3938.4287,10552.3740,0.67
484124064,0.42,0.01,0.44,-1.54,4.73,8.66,0.41,0.04,0.43,-1.64,6.05,8.84,0.36,0.03,0.40,-1.97,5.57,13.66,0.35,-0.10,0.40,-0.58,3.52,16.42,0.42,-0.02,0.36,-0.39,2.63,6.39,3938.4287,10552.3740,0.67
484128051,0.42,0.05,0.46,-1.40,-1.63,12.53,0.43,0.02,0.45,-0.77,-0.86,13.41,0.41,-0.02,0.39,-1.20,1.27,16.68,0.39,-0.11,0.43,-0.21,2.26,7.87,0.42,-0.06,0.37,1.41,3.58,11.16,3938.4287,10552.3740,0.67
484132024,0.42,0.04,0.50,-1.36,-1.79,7.75,0.40,0.07,0.46,-1.12,-1.64,17.32,0.47,-0.08,0.35,-1.37,-2.11,15.23,0.48,-0.11,0.50,-0.99,0.35,9.36,0.55,-0.10,0.35,0.31,0.87,13.25,3938.4287,10552.3740,0.67
484136360,0.45,-0.02,0.45,-1.85,-1.89,14.04,0.50,0.03,0.47,-2.04,0.34,12.56,0.49,-0.00,0.56,-1.53,-1.95,27.99,0.60,-0.01,0.51,-0.87,-0.60,-0.22,0.69,-0.15,0.33,5.36,-2.71,9.25,3938.4287,10552.3740,0.67
484140734,0.34,0.02,0.47,-1.14,-2.85,11.50,0.36,0.01,0.45,-0.67,-2.82,9.74,0.37,-0.00,0.47,-0.52,-1.57,-0.14,0.33,0.05,0.41,-2.01,0.30,11.71,0.21,-0.12,0.39,2.54,1.40,9.88,3938.4287,10552.3740,0.67
484145139,0.20,0.01,0.46,-1.82,-1.48,8.28,0.16,0.02,0.44,-1.29,-0.78,10.25,0.12,0.00,0.44,-1.55,-0.14,1.90,0.10,-0.03,0.43,-1.87,-0.19,5.96,0.20,0.06,0.42,0.52,-0.65,14.53,3938.4287,10552.3740,0.67
484149542,0.34,-0.00,0.48,-0.90,-0.27,5.99,0.34,0.03,0.42,-1.98,-2.40,9.73,0.34,0.05,0.41,-0.52,-2.45,10.48,0.42,-0.01,0.49,-1.37,-1.48,6.98,0.47,0.04,0.34,0.91,-3.19,5.20,3938.4287,10552.3740,0.67
484153859,0.42,0.03,0.47,-2.28,-1.72,8.75,0.42,0.04,0.42,-1.32,-2.29,13.62,0.45,0.04,0.41,-2.29,-3.67,15.10,0.50,0.03,0.36,-0.69,-3.99,11.51,0.62,0.12,0.30,-0.52,-4.01,7.30,3938.4287,10552.3740,0.67
484158108,0.21,0.01,0.41,-1.87,-1.24,13.03,0.21,0.04,0.39,-1.43,-1.67,10.47,0.16,0.04,0.44,-1.95,-3.52,9.28,0.14,0.10,0.43,-1.76,-3.67,11.87,0.18,0.11,0.38,-0.22,-4.01,8.45,3938.4287,10552.3740,0.67
484162353,0.13,0.01,0.41,-1.75,-2.95,11.41,0.10,0.04,0.40,-1.69,-3.08,11.62,0.06,0.05,0.43,-1.62,-4.43,12.27,0.07,0.10,0.41,-2.18,-4.42,9.76,0.11,0.07,0.38,1.52,-5.17,11.66,3938.4287,10552.3740,0.67
484166607,0.20,0.01,0.39,-2.00,-2.63,11.27,0.21,0.02,0.38,-1.50,-2.81,9.52,0.22,0.04,0.38,-2.10,-3.51,11.52,0.27,0.04,0.35,-1.49,-3.93,10.10,0.36,0.08,0.31,0.57,-5.27,11.33,3938.4287,10552.3740,0.67
484170915,0.17,0.02,0.37,-1.62,-3.28,10.68,0.18,0.03,0.36,-1.34,-3.31,11.31,0.18,0.01,0.37,-1.19,-3.82,10.22,0.20,0.02,0.36,-1.44,-4.34,10.85,0.23,-0.01,0.33,1.33,-4.80,13.96,3938.4287,10552.3740,0.67
484175271,0.05,0.00,0.36,-1.37,-2.79,11.52,0.04,0.01,0.34,-0.97,-3.17,8.98,0.02,0.00,0.34,-1.29,-4.22,9.77,-0.01,-0.05,0.35,-0.71,-5.21,13.20,0.01,-0.03,0.35,0.72,-5.84,11.06,3938.4287,10552.3740,0.67
484179686,0.04,0.02,0.33,-1.14,-3.18,10.33,0.05,0.00,0.33,-0.65,-2.83,13.55,0.06,-0.02,0.34,-0.75,-3.82,13.19,0.11,-0.06,0.31,-0.37,-4.91,9.49,0.20,-0.08,0.29,0.96,-6.58,11.62,3938.4287,10552.3740,0.67
484184100,0.07,0.01,0.30,-0.89,-3.14,10.89,0.08,0.00,0.30,-0.52,-3.22,10.34,0.08,-0.04,0.30,-0.66,-3.59,10.63,0.10,-0.06,0.32,-0.71,-4.17,9.69,0.18,-0.10,0.28,1.85,-4.33,10.13,3938.4287,10552.3740,0.67
484188428,0.03,0.01,0.29,-0.66,-2.54,9.48,0.02,0.00,0.29,-0.31,-3.16,9.79,-0.01,-0.03,0.27,-0.40,-4.18,7.67,-0.04,-0.07,0.28,-0.24,-4.81,9.74,-0.01,-0.09,0.29,1.42,-4.99,9.98,3938.4287,10552.3740,0.67
484192693,0.00,0.00,0.27,-0.43,-2.50,9.41,0.00,0.01,0.27,-0.06,-2.72,11.20,-0.00,-0.01,0.26,-0.09,-3.50,10.96,-0.00,-0.05,0.27,0.05,-4.32,7.59,0.03,-0.07,0.27,2.05,-5.26,8.15,3938.4287,10552.3740,0.67
484196713,-0.00,0.01,0.25,-0.25,-2.13,10.60,0.00,0.01,0.25,0.24,-2.55,11.76,0.02,0.00,0.25,0.14,-3.50,11.03,0.04,-0.03,0.25,0.44,-4.50,7.99,0.12,-0.01,0.23,1.83,-5.22,7.70,3938.4287,10552.3740,0.67
484200751,-0.04,-0.00,0.23,-0.16,-2.30,10.01,-0.05,0.00,0.23,0.40,-2.33,10.15,-0.07,0.03,0.24,-0.24,-3.02,11.01,-0.05,0.00,0.23,0.71,-3.33,9.92,0.00,0.02,0.24,1.46,-3.62,5.82,3938.4287,10552.3740,0.67
484204817,-0.06,0.00,0.22,-0.06,-1.16,11.35,-0.07,0.02,0.22,0.49,-1.10,11.61,-0.08,0.03,0.21,0.21,-2.02,11.07,-0.08,0.05,0.22,0.63,-2.92,9.48,-0.03,0.05,0.23,2.20,-4.02,6.09,3938.4287,10552.3740,0.67
484213240,-0.03,-0.00,0.20,0.39,-1.20,8.66,-0.02,0.02,0.20,0.34,-1.16,8.46,-0.02,0.04,0.20,0.49,-1.64,10.56,-0.02,0.07,0.20,0.54,-2.17,7.64,0.01,0.09,0.20,2.46,-2.51,11.21,3938.4287,10552.3740,0.67
484218614,-0.05,-0.00,0.18,0.42,-1.04,9.18,-0.06,0.03,0.18,0.57,-1.09,8.18,-0.07,0.03,0.18,0.33,-1.33,9.99,-0.07,0.04,0.18,0.63,-1.20,11.09,-0.04,0.05,0.20,2.77,-1.44,10.49,3938.4287,10552.3740,0.67
484222499,-0.06,-0.00,0.18,0.41,-0.22,11.38,-0.06,0.00,0.18,0.75,-0.42,10.63,-0.06,0.01,0.18,0.50,-1.09,8.85,-0.05,0.02,0.18,0.61,-1.46,12.08,0.01,0.02,0.18,2.85,-1.67,11.96,3938.4287,10552.3740,0.67
484226787,-0.05,-0.00,0.18,0.38,-0.25,9.36,-0.05,0.00,0.17,0.41,-0.27,9.71,-0.05,-0.00,0.17,0.45,-0.62,9.37,-0.04,-0.00,0.17,0.42,-0.46,10.73,0.02,-0.04,0.18,2.76,-0.42,11.67,3938.4287,10552.3740,0.67
484231044,-0.02,0.01,0.17,0.39,-0.25,9.55,-0.02,0.01,0.17,0.60,-0.18,10.89,-0.02,-0.03,0.17,0.56,-0.63,10.64,-0.02,-0.05,0.17,0.80,-0.97,9.85,-0.02,-0.06,0.17,2.76,-1.11,11.75,3938.4287,10552.3740,0.67
484235350,-0.02,0.00,0.16,0.63,-0.12,10.68,-0.02,-0.00,0.16,0.92,-0.05,10.04,-0.03,-0.03,0.17,0.77,-0.54,10.00,-0.03,-0.06,0.17,0.91,-1.01,10.44,-0.00,-0.10,0.16,2.96,-1.13,9.12,3938.4287,10552.3740,0.67
484239731,-0.03,0.00,0.16,0.72,-0.39,9.49,-0.03,-0.01,0.15,1.02,-0.46,10.48,-0.02,-0.03,0.15,0.74,-0.82,10.08,-0.01,-0.05,0.15,1.13,-0.94,10.44,0.02,-0.09,0.15,2.82,-1.06,8.06,3938.4287,10552.3740,0.67
484244114,-0.01,0.01,0.15,0.91,0.21,9.15,-0.01,0.00,0.15,1.12,0.09,9.80,-0.01,-0.03,0.15,1.12,-0.43,10.20,-0.01,-0.04,0.15,1.41,-0.60,7.02,0.03,-0.05,0.14,2.82,-0.76,8.92,3938.4287,10552.3740,0.67
484248513,-0.01,-0.00,0.14,1.08,0.24,9.69,0.00,0.01,0.14,1.16,0.40,9.91,0.00,0.00,0.15,1.15,-0.17,9.64,0.01,-0.02,0.15,1.27,-0.59,9.55,0.03,-0.02,0.14,3.09,-0.97,6.95,3938.4287,10552.3740,0.67
484252877,-0.00,-0.00,0.14,1.38,-0.33,10.23,-0.00,0.00,0.14,1.58,-0.11,9.93,-0.01,0.01,0.14,1.36,-0.59,9.35,-0.02,0.01,0.13,1.77,-0.78,10.06,0.01,0.03,0.14,3.01,-0.96,6.83,3938.4287,10552.3740,0.67
484257170,-0.02,0.00,0.13,1.34,-0.43,9.58,-0.02,0.01,0.13,1.57,-0.30,9.98,-0.03,0.03,0.14,1.42,-0.74,11.12,-0.02,0.05,0.14,1.95,-1.03,8.22,0.03,0.05,0.13,3.20,-1.32,8.75,3938.4287,10552.3740,0.67
484261424,-0.01,-0.00,0.13,1.52,-0.76,9.97,-0.02,0.01,0.13,1.72,-0.64,9.77,-0.03,0.02,0.13,1.68,-0.90,9.41,-0.02,0.06,0.13,1.69,-0.99,9.48,0.02,0.09,0.13,3.87,-0.86,9.97,3938.4287,10552.3740,0.67
484265664,-0.00,-0.00,0.13,1.55,-0.61,10.09,-0.00,0.01,0.13,1.78,-0.42,9.53,-0.01,0.04,0.13,1.51,-0.78,8.91,0.00,0.05,0.12,1.75,-1.13,10.51,0.04,0.07,0.13,3.88,-1.20,9.64,3938.4287,10552.3740,0.67
484269936,0.03,-0.00,0.13,1.65,-1.07,9.80,0.02,0.01,0.12,1.86,-1.00,9.79,0.00,0.03,0.12,1.63,-1.13,10.65,-0.01,0.03,0.13,2.04,-1.26,11.22,0.00,0.05,0.13,3.93,-1.21,10.81,3938.4287,10552.3740,0.67
484274319,0.03,0.00,0.13,1.66,-1.02,10.54,0.03,-0.00,0.12,1.88,-1.08,10.46,0.03,-0.00,0.12,1.79,-1.67,10.00,0.03,0.02,0.12,1.90,-1.98,10.61,0.06,0.01,0.11,4.14,-2.14,11.74,3938.4287,10552.3740,0.67
484278735,0.03,-0.00,0.12,1.82,-1.37,9.76,0.02,-0.00,0.12,2.05,-1.17,10.37,0.03,-0.01,0.12,1.84,-1.40,10.28,0.03,-0.02,0.12,2.16,-1.48,10.56,0.04,-0.05,0.11,4.02,-1.59,11.26,3938.4287,10552.3740,0.67
484283153,0.04,0.00,0.12,1.82,-1.84,9.10,0.04,-0.00,0.12,1.86,-1.81,9.42,0.03,-0.03,0.12,1.77,-2.13,10.79,0.03,-0.05,0.11,2.09,-2.20,10.32,0.05,-0.06,0.11,3.95,-2.23,10.20,3938.4287,10552.3740,0.67
484287553,0.05,0.00,0.11,1.96,-1.98,9.93,0.05,-0.00,0.11,2.15,-1.91,9.48,0.05,-0.03,0.11,2.02,-2.15,9.66,0.06,-0.06,0.11,2.20,-2.53,9.61,0.09,-0.08,0.09,3.90,-2.80,9.25,3938.4287,10552.3740,0.67
484291600,0.06,0.00,0.10,1.86,-2.09,9.97,0.06,-0.01,0.10,2.10,-2.40,10.22,0.06,-0.03,0.10,1.99,-3.13,10.10,0.06,-0.06,0.10,2.19,-3.69,10.03,0.09,-0.07,0.08,4.06,-3.79,8.73,3938.4287,10552.3740,0.67
484295657,0.07,-0.00,0.09,1.75,-2.24,10.15,0.07,-0.01,0.09,1.99,-2.39,10.30,0.07,-0.02,0.09,1.90,-2.97,9.51,0.07,-0.04,0.09,2.01,-3.46,9.37,0.07,-0.04,0.08,3.70,-3.86,7.38,3938.4287,10552.3740,0.67
484300714,0.09,-0.00,0.08,1.70,-2.41,9.92,0.09,-0.00,0.07,1.94,-2.55,9.77,0.09,-0.00,0.07,1.89,-3.12,9.47,0.10,0.00,0.07,1.96,-3.62,9.32,0.12,-0.01,0.05,3.82,-4.06,8.16,3938.4287,10552.3740,0.67
484304793,0.09,-0.00,0.06,1.84,-2.65,10.17,0.08,-0.01,0.06,2.07,-2.83,10.10,0.08,0.00,0.06,2.01,-3.57,9.12,0.07,0.02,0.06,2.10,-4.25,8.84,0.07,0.04,0.04,3.89,-4.63,7.92,3938.4287,10552.3740,0.67
484308876,0.09,-0.00,0.05,1.82,-2.64,9.83,0.08,0.00,0.04,2.02,-2.83,10.16,0.07,0.02,0.04,1.96,-3.51,10.03,0.06,0.04,0.04,2.17,-4.14,9.75,0.06,0.04,0.03,3.97,-4.83,8.17,3938.4287,10552.3740,0.67
484312963,0.10,-0.01,0.03,1.90,-2.38,9.88,0.10,-0.00,0.03,2.06,-2.57,9.92,0.10,0.02,0.03,1.99,-3.28,10.35,0.11,0.04,0.02,2.22,-3.95,10.57,0.12,0.08,-0.00,4.15,-4.58,9.05,3938.4287,10552.3740,0.67
484317378,0.12,-0.01,0.01,1.84,-1.48,10.03,0.11,-0.00,0.01,2.09,-1.54,10.01,0.11,0.02,0.01,2.01,-2.13,9.65,0.12,0.04,0.00,2.15,-2.71,9.70,0.13,0.05,-0.02,4.12,-3.11,10.34,3938.4287,10552.3740,0.67
484321738,0.13,-0.00,0.01,1.70,-0.28,9.82,0.13,-0.01,0.00,1.89,-0.11,9.84,0.12,0.01,0.00,1.67,-0.41,10.34,0.13,0.02,-0.00,1.95,-0.68,11.30,0.12,0.03,-0.02,4.13,-0.83,11.17,3938.4287,10552.3740,0.67
484326037,0.16,-0.00,0.00,1.47,0.44,10.04,0.16,-0.01,0.00,1.67,0.70,9.80,0.16,-0.01,0.00,1.50,0.50,9.92,0.16,-0.01,-0.00,1.76,0.41,10.29,0.17,-0.00,-0.03,3.69,0.30,11.17,3938.4287,10552.3740,0.67
484330301,0.17,-0.01,0.01,1.12,0.47,9.55,0.17,-0.02,0.00,1.34,0.72,9.61,0.17,-0.02,0.00,1.14,0.48,10.12,0.17,-0.04,-0.00,1.42,0.34,11.10,0.16,-0.05,-0.03,3.57,0.29,11.33,3938.4287,10552.3740,0.67
484334549,0.17,-0.00,0.01,0.76,0.51,9.85,0.17,-0.02,-0.00,0.98,0.77,9.85,0.17,-0.04,0.01,0.83,0.53,10.03,0.16,-0.06,-0.00,1.11,0.35,9.93,0.16,-0.07,-0.03,2.91,0.23,10.35,3938.4287,10552.3740,0.67
484338904,0.19,-0.00,0.01,0.49,0.52,9.90,0.19,-0.02,0.00,0.71,0.75,9.91,0.19,-0.04,0.01,0.50,0.43,10.10,0.20,-0.07,-0.00,0.86,0.19,10.41,0.20,-0.09,-0.04,2.68,0.01,9.70,3938.4287,10552.3740,0.67
484343306,0.20,-0.00,0.01,0.35,0.65,9.97,0.20,-0.02,-0.00,0.52,0.85,9.90,0.20,-0.04,0.00,0.39,0.57,9.62,0.21,-0.07,-0.00,0.69,0.36,9.34,0.21,-0.06,-0.04,2.32,0.28,8.81,3938.4287,10552.3740,0.67
484347691,0.18,-0.00,0.01,0.21,0.72,9.79,0.17,-0.02,-0.00,0.44,1.00,9.67,0.18,-0.03,0.00,0.26,0.76,9.41,0.18,-0.05,-0.01,0.62,0.65,9.10,0.18,-0.06,-0.04,2.10,0.70,8.24,3938.4287,10552.3740,0.67
484353348,0.17,-0.01,0.00,0.17,0.73,9.87,0.16,-0.01,0.00,0.36,0.94,9.90,0.16,-0.02,0.00,0.21,0.60,9.70,0.16,-0.01,-0.00,0.59,0.48,8.85,0.15,-0.00,-0.03,1.99,0.38,7.63,3938.4287,10552.3740,0.67
484357690,0.17,-0.00,0.01,0.21,0.65,10.00,0.16,-0.01,-0.00,0.40,0.84,9.86,0.16,0.01,0.00,0.22,0.53,9.70,0.17,0.01,-0.00,0.57,0.39,9.34,0.18,0.02,-0.04,2.11,0.34,8.19,3938.4287,10552.3740,0.67
484361990,0.15,-0.00,0.00,0.22,0.86,9.65,0.15,-0.01,-0.00,0.39,1.11,9.46,0.14,0.01,-0.00,0.23,0.86,9.46,0.14,0.03,-0.01,0.53,0.67,9.41,0.14,0.05,-0.03,2.19,0.66,8.96,3938.4287,10552.3740,0.67
484366255,0.13,-0.00,0.00,0.14,0.86,10.04,0.12,-0.00,-0.00,0.40,1.10,9.80,0.12,0.02,0.00,0.18,0.80,9.48,0.11,0.04,-0.00,0.49,0.64,9.58,0.10,0.04,-0.02,2.21,0.68,9.65,3938.4287,10552.3740,0.67
484370520,0.11,-0.00,0.00,0.11,0.78,9.63,0.10,-0.00,-0.00,0.33,0.97,9.55,0.10,0.01,0.00,0.09,0.76,9.99,0.10,0.03,-0.00,0.44,0.57,10.57,0.09,0.04,-0.02,2.36,0.35,10.24,3938.4287,10552.3740,0.67
484374897,0.12,-0.00,0.00,0.14,0.73,9.86,0.12,-0.00,0.00,0.36,0.95,10.09,0.11,0.01,0.00,0.13,0.58,9.86,0.11,0.01,-0.00,0.40,0.47,10.12,0.10,0.02,-0.02,2.25,0.36,10.58,3938.4287,10552.3740,0.67
484379334,0.14,-0.00,0.00,0.06,0.70,9.88,0.14,-0.00,-0.00,0.35,1.03,9.95,0.14,-0.00,0.00,0.15,0.78,10.07,0.14,-0.00,-0.00,0.47,0.56,10.93,0.13,-0.00,-0.03,2.45,0.19,10.95,3938.4287,10552.3740,0.67
484383434,0.15,-0.00,0.00,0.09,0.98,9.87,0.15,-0.01,-0.00,0.31,1.36,9.97,0.15,-0.01,0.00,0.08,0.89,9.87,0.15,-0.02,-0.00,0.44,0.47,10.19,0.15,-0.03,-0.03,2.33,0.08,10.64,3938.4287,10552.3740,0.67
484387513,0.15,0.00,0.00,0.02,0.62,9.77,0.15,-0.01,-0.00,0.23,0.80,9.69,0.16,-0.02,0.00,0.05,0.64,9.95,0.15,-0.03,-0.00,0.32,0.65,10.46,0.14,-0.05,-0.03,2.22,0.64,10.20,3938.4287,10552.3740,0.67
484392628,0.13,0.00,0.00,0.13,0.70,9.90,0.13,-0.01,-0.00,0.32,0.89,9.65,0.13,-0.02,0.00,0.15,0.77,9.65,0.13,-0.05,-0.00,0.44,0.66,9.52,0.14,-0.05,-0.03,2.14,0.67,9.60,3938.4287,10552.3740,0.67
484396646,0.13,-0.00,0.00,0.14,0.66,9.75,0.13,-0.01,-0.00,0.39,0.91,9.66,0.13,-0.02,0.00,0.15,0.70,9.71,0.12,-0.04,-0.00,0.49,0.59,9.71,0.12,-0.05,-0.02,2.11,0.59,8.94,3938.4287,10552.3740,0.67
484400639,0.14,0.00,0.00,0.11,0.60,10.08,0.14,-0.01,-0.00,0.34,0.86,9.91,0.14,-0.02,0.00,0.19,0.60,9.60,0.14,-0.03,-0.00,0.52,0.53,9.46,0.14,-0.02,-0.03,2.18,0.42,8.81,3938.4287,10552.3740,0.67
484404633,0.15,-0.00,0.00,0.11,0.80,9.88,0.15,-0.01,-0.00,0.30,0.86,9.76,0.15,-0.00,0.00,0.17,0.53,9.41,0.15,-0.01,-0.00,0.45,0.46,9.14,0.15,-0.01,-0.03,2.13,0.54,8.77,3938.4287,10552.3740,0.67
484409030,0.14,-0.00,0.00,0.21,0.83,9.89,0.13,-0.01,-0.00,0.39,1.00,9.67,0.13,0.00,0.00,0.21,0.70,9.40,0.13,0.01,-0.00,0.50,0.65,9.44,0.12,0.02,-0.03,2.18,0.78,8.99,3938.4287,10552.3740,0.67
484413456,0.14,-0.00,0.00,0.18,0.84,9.86,0.13,-0.01,-0.00,0.40,0.97,9.85,0.13,0.01,0.00,0.22,0.60,9.69,0.12,0.02,-0.00,0.55,0.44,9.53,0.11,0.03,-0.02,2.19,0.42,9.32,3938.4287,10552.3740,0.67
484417878,0.16,-0.00,0.00,0.18,0.65,9.88,0.15,-0.00,-0.00,0.38,0.73,9.83,0.16,0.01,0.00,0.20,0.51,9.83,0.16,0.03,-0.00,0.48,0.38,9.94,0.15,0.04,-0.03,2.39,0.32,9.91,3938.4287,10552.3740,0.67
484422261,0.16,-0.00,0.00,0.10,0.69,9.79,0.16,-0.01,-0.00,0.36,0.86,9.73,0.16,0.01,-0.00,0.18,0.68,9.66,0.16,0.02,-0.00,0.43,0.67,9.97,0.15,0.04,-0.04,2.34,0.71,10.59,3938.4287,10552.3740,0.67
484426562,0.16,-0.00,0.01,0.13,0.75,9.66,0.15,-0.01,0.00,0.29,0.97,9.60,0.15,0.00,0.00,0.14,0.76,9.92,0.14,0.01,-0.00,0.44,0.69,10.27,0.14,0.00,-0.03,2.37,0.69,10.84,3938.4287,10552.3740,0.67
484430812,0.16,0.00,0.00,0.13,0.70,9.83,0.16,-0.01,-0.00,0.29,0.89,9.79,0.16,-0.01,0.00,0.12,0.69,9.98,0.15,-0.01,-0.00,0.42,0.59,10.36,0.15,-0.01,-0.03,2.34,0.46,10.88,3938.4287,10552.3740,0.67
484435074,0.17,-0.00,0.00,0.10,0.61,9.94,0.17,-0.01,-0.00,0.37,0.85,9.80,0.17,-0.01,0.00,0.11,0.63,9.82,0.18,-0.03,-0.00,0.42,0.59,10.19,0.18,-0.03,-0.04,2.33,0.51,10.57,3938.4287,10552.3740,0.67
484439347,0.21,-0.00,0.01,0.15,1.39,10.20,0.22,-0.01,-0.00,0.38,1.53,9.35,0.22,-0.02,0.00,0.14,1.06,10.03,0.21,-0.03,-0.01,0.51,0.43,10.44,0.18,-0.04,-0.04,2.36,-0.08,10.01,3938.4287,10552.3740,0.67
484443722,0.20,-0.00,0.01,0.06,0.69,10.29,0.21,-0.02,-0.00,0.30,0.89,10.17,0.22,-0.02,0.00,0.09,0.59,9.56,0.22,-0.03,-0.01,0.37,0.54,9.84,0.22,-0.04,-0.05,2.12,0.67,9.71,3938.4287,10552.3740,0.67
484448128,0.21,-0.00,0.00,0.09,0.88,9.27,0.20,-0.01,-0.00,0.30,1.21,9.53,0.20,-0.02,0.00,0.15,0.97,9.59,0.19,-0.03,-0.00,0.49,0.90,9.36,0.17,-0.04,-0.04,2.11,0.86,9.04,3938.4287,10552.3740,0.67
484452558,0.21,-0.00,0.00,0.15,0.79,10.16,0.21,-0.01,0.00,0.37,0.98,10.15,0.21,-0.01,0.01,0.18,0.69,10.06,0.20,-0.02,-0.00,0.54,0.50,9.74,0.18,-0.02,-0.04,2.17,0.29,8.64,3938.4287,10552.3740,0.67
484456943,0.24,-0.00,0.01,0.13,0.73,9.89,0.23,-0.01,-0.00,0.36,1.00,9.93,0.23,-0.00,0.00,0.21,0.69,9.87,0.24,-0.00,-0.01,0.56,0.56,9.58,0.24,0.00,-0.05,2.16,0.36,8.81,3938.4287,10552.3740,0.67
484461246,0.25,-0.00,0.01,0.15,0.79,9.71,0.25,-0.01,-0.00,0.39,1.03,9.74,0.25,0.00,0.01,0.21,0.81,9.74,0.25,0.01,-0.00,0.52,0.72,9.58,0.24,0.02,-0.05,2.17,0.70,9.14,3938.4287,10552.3740,0.67
484465554,0.25,0.00,0.00,0.18,0.88,9.98,0.25,-0.01,0.00,0.43,1.13,9.90,0.24,0.01,0.00,0.21,0.82,9.82,0.24,0.01,-0.01,0.54,0.71,9.89,0.23,0.02,-0.05,2.28,0.68,9.64,3938.4287,10552.3740,0.67
484469882,0.27,0.00,0.01,0.17,0.79,9.84,0.26,-0.01,-0.00,0.36,1.06,9.89,0.26,0.00,0.00,0.17,0.78,9.54,0.25,0.01,-0.01,0.47,0.74,10.23,0.25,0.02,-0.05,2.32,0.48,10.31,3938.4287,10552.3740,0.67
484473934,0.28,0.00,0.01,0.17,0.83,9.94,0.27,-0.01,-0.00,0.36,1.05,9.84,0.28,0.00,0.00,0.18,0.77,9.64,0.28,0.00,-0.01,0.44,0.65,10.27,0.28,0.01,-0.06,2.29,0.53,10.45,3938.4287,10552.3740,0.67
484478071,0.29,0.00,0.01,0.18,0.94,9.78,0.29,-0.01,-0.00,0.36,1.18,9.67,0.29,-0.00,0.00,0.18,0.95,10.03,0.28,-0.01,-0.00,0.51,0.79,10.24,0.28,-0.00,-0.06,2.37,0.71,10.53,3938.4287,10552.3740,0.67
484483216,0.29,0.00,0.01,0.11,0.89,9.57,0.27,-0.01,-0.00,0.32,0.98,10.25,0.28,-0.00,0.00,0.15,1.04,9.52,0.28,-0.02,-0.01,0.43,0.96,9.96,0.27,-0.03,-0.06,2.21,0.72,10.45,3938.4287,10552.3740,0.67
484488614,0.30,0.00,0.00,0.20,0.89,9.46,0.29,-0.01,-0.00,0.43,1.11,10.03,0.30,-0.02,0.00,0.26,0.85,10.14,0.30,-0.04,-0.01,0.63,0.75,9.87,0.30,-0.04,-0.06,2.30,0.63,9.57,3938.4287,10552.3740,0.67
484492525,0.29,0.01,0.01,0.16,0.94,9.81,0.29,-0.01,-0.00,0.41,1.16,9.81,0.29,-0.02,0.00,0.23,0.90,9.82,0.29,-0.04,-0.01,0.55,0.79,9.57,0.29,-0.04,-0.06,2.25,0.84,9.57,3938.4287,10552.3740,0.67
484496466,0.29,0.00,0.01,0.12,0.97,9.65,0.28,-0.01,-0.01,0.38,1.23,9.72,0.27,-0.02,0.01,0.24,0.91,9.89,0.27,-0.04,-0.01,0.54,0.93,9.48,0.27,-0.04,-0.06,2.21,0.90,9.17,3938.4287,10552.3740,0.67
484500764,0.27,0.00,0.00,0.13,1.01,9.68,0.27,-0.01,-0.00,0.34,1.20,9.69,0.27,-0.01,0.01,0.17,0.93,9.77,0.27,-0.03,-0.01,0.51,0.75,9.28,0.27,-0.02,-0.06,2.05,0.74,8.57,3938.4287,10552.3740,0.67
484505058,0.27,0.00,0.00,0.07,0.96,9.84,0.26,-0.00,-0.00,0.29,1.15,9.63,0.26,-0.00,-0.00,0.16,0.93,9.66,0.26,-0.01,-0.01,0.51,0.86,9.35,0.26,-0.00,-0.05,2.09,0.87,8.67,3938.4287,10552.3740,0.67
484509392,0.26,0.00,0.01,0.12,1.07,9.86,0.25,-0.00,-0.00,0.34,1.31,9.70,0.25,0.00,0.01,0.20,1.07,9.65,0.25,0.00,-0.00,0.48,0.88,9.30,0.24,0.01,-0.05,2.12,0.79,8.77,3938.4287,10552.3740,0.67
484513824,0.25,0.00,0.01,0.17,1.03,9.93,0.25,-0.00,0.00,0.37,1.22,9.74,0.25,0.01,0.00,0.20,1.05,9.68,0.24,0.02,-0.00,0.50,0.78,9.73,0.24,0.03,-0.05,2.25,0.76,8.99,3938.4287,10552.3740,0.67
484518211,0.26,0.00,0.00,0.20,1.19,9.91,0.25,-0.00,-0.00,0.44,1.34,9.68,0.25,0.01,0.01,0.25,1.09,9.88,0.25,0.02,-0.01,0.56,0.84,9.79,0.24,0.04,-0.05,2.39,0.68,9.48,3938.4287,10552.3740,0.67
484522587,0.26,0.00,0.01,0.20,1.00,9.71,0.25,-0.00,0.00,0.42,1.23,9.70,0.25,0.01,0.00,0.23,0.96,9.59,0.25,0.02,-0.01,0.57,0.92,9.93,0.24,0.03,-0.05,2.38,0.84,10.42,3938.4287,10552.3740,0.67
484526924,0.25,0.00,0.01,0.19,1.01,9.83,0.25,-0.00,-0.00,0.39,1.29,9.87,0.25,0.01,0.00,0.22,1.04,9.60,0.25,0.01,-0.01,0.53,0.90,10.29,0.24,0.02,-0.05,2.33,0.73,10.28,3938.4287,10552.3740,0.67
484531142,0.25,0.01,0.00,0.17,1.00,9.67,0.25,-0.00,-0.00,0.37,1.24,9.74,0.25,0.00,0.00,0.24,0.96,9.73,0.25,-0.01,-0.00,0.50,0.79,10.64,0.25,-0.00,-0.05,2.36,0.75,10.19,3938.4287,10552.3740,0.67
484535417,0.26,0.01,0.01,0.17,1.07,9.77,0.25,-0.00,-0.00,0.38,1.30,9.81,0.26,-0.01,0.00,0.21,1.07,10.10,0.25,-0.02,-0.01,0.60,0.98,9.96,0.25,-0.02,-0.05,2.37,0.82,10.50,3938.4287,10552.3740,0.67
484539693,0.26,0.01,0.01,0.16,1.07,9.85,0.26,-0.00,0.00,0.36,1.29,9.77,0.26,-0.01,0.00,0.21,1.02,9.85,0.25,-0.03,-0.00,0.54,0.89,9.99,0.26,-0.03,-0.05,2.33,0.82,9.84,3938.4287,10552.3740,0.67
484544068,0.27,0.00,-0.02,0.17,0.64,9.78,0.26,0.00,-0.00,0.38,1.04,9.85,0.27,-0.01,0.00,0.21,1.13,9.82,0.27,-0.03,-0.01,0.64,1.09,9.91,0.27,-0.03,-0.06,2.36,0.77,9.52,3938.4287,10552.3740,0.67
484548488,0.28,0.01,-0.00,0.15,1.00,9.77,0.28,-0.00,0.00,0.37,1.20,9.64,0.29,-0.01,-0.00,0.20,1.00,9.38,0.28,-0.02,-0.01,0.49,0.80,9.60,0.28,-0.01,-0.06,2.16,0.82,9.25,3938.4287,10552.3740,0.67
484552880,0.29,0.01,0.00,0.12,1.14,10.04,0.29,-0.00,-0.00,0.39,1.35,9.84,0.29,0.00,0.00,0.18,1.10,9.70,0.29,-0.01,-0.01,0.55,0.95,9.66,0.29,-0.01,-0.06,2.20,0.91,9.06,3938.4287,10552.3740,0.67
484557289,0.30,0.01,0.01,0.15,1.11,9.80,0.29,-0.00,-0.00,0.38,1.34,9.75,0.29,0.00,0.00,0.19,1.09,9.61,0.29,0.00,-0.01,0.54,1.01,9.44,0.28,0.01,-0.06,2.18,0.83,8.98,3938.4287,10552.3740,0.67
484561685,0.30,0.01,0.01,0.20,1.11,9.89,0.30,0.00,-0.00,0.41,1.30,9.76,0.30,0.01,0.00,0.26,1.02,9.73,0.30,0.01,-0.01,0.58,0.91,9.67,0.29,0.02,-0.06,2.24,0.82,9.07,3938.4287,10552.3740,0.67
484565689,0.31,0.01,0.01,0.23,1.15,9.73,0.30,0.00,-0.00,0.45,1.35,9.73,0.30,0.02,0.00,0.29,1.09,9.71,0.30,0.02,-0.01,0.57,0.96,9.65,0.30,0.03,-0.06,2.30,0.95,9.36,3938.4287,10552.3740,0.67
484569759,0.30,0.01,0.01,0.28,1.26,9.78,0.29,0.00,-0.00,0.48,1.49,9.75,0.29,0.02,0.01,0.33,1.18,9.70,0.29,0.02,-0.00,0.61,1.09,9.68,0.28,0.03,-0.06,2.36,1.08,9.63,3938.4287,10552.3740,0.67
484578251,0.27,0.01,0.01,0.30,1.25,9.78,0.27,0.00,-0.00,0.53,1.44,9.62,0.28,0.01,0.00,0.31,1.23,9.80,0.28,0.01,-0.01,0.67,1.05,10.13,0.27,0.02,-0.05,2.38,1.01,9.76,3938.4287,10552.3740,0.67
484582302,0.26,0.01,0.01,0.29,1.27,9.69,0.26,0.01,-0.00,0.51,1.49,9.69,0.26,0.01,0.00,0.32,1.26,9.71,0.26,0.00,-0.01,0.68,1.15,9.92,0.26,0.00,-0.05,2.47,1.07,9.97,3938.4287,10552.3740,0.67
484586382,0.24,0.01,0.01,0.25,1.34,9.56,0.24,0.00,-0.00,0.48,1.51,9.58,0.24,0.00,0.00,0.31,1.27,9.63,0.23,-0.01,-0.00,0.62,1.09,9.94,0.23,-0.00,-0.05,2.47,1.09,10.01,3938.4287,10552.3740,0.67
484590438,0.22,0.01,0.01,0.19,1.27,9.71,0.21,0.00,-0.00,0.49,1.52,9.73,0.21,0.00,0.01,0.26,1.27,9.46,0.21,-0.01,-0.01,0.59,1.16,9.46,0.21,-0.01,-0.05,2.24,1.10,9.61,3938.4287,10552.3740,0.67
484594791,0.20,0.01,0.01,0.13,1.27,9.75,0.20,0.01,-0.00,0.39,1.47,9.69,0.20,0.00,0.00,0.18,1.21,9.77,0.20,-0.01,-0.01,0.55,1.03,9.94,0.20,-0.01,-0.04,2.25,0.98,9.29,3938.4287,10552.3740,0.67
484599083,0.20,0.01,0.01,0.08,1.23,9.88,0.20,0.00,-0.00,0.32,1.47,9.74,0.20,0.00,0.00,0.14,1.19,9.70,0.20,-0.00,-0.00,0.48,1.04,9.53,0.20,-0.00,-0.04,2.14,0.90,9.01,3938.4287,10552.3740,0.67
484603338,0.19,0.01,0.01,0.10,1.23,9.76,0.19,0.01,0.00,0.31,1.44,9.66,0.19,0.01,0.00,0.11,1.22,9.69,0.19,0.00,-0.00,0.50,1.09,9.60,0.19,0.01,-0.04,2.12,1.06,9.13,3938.4287,10552.3740,0.67
484607670,0.19,0.01,0.01,0.05,1.26,9.82,0.19,0.01,0.00,0.30,1.48,9.81,0.19,0.01,0.00,0.15,1.23,9.66,0.18,0.01,-0.00,0.44,1.12,9.53,0.18,0.02,-0.04,2.12,1.06,9.09,3938.4287,10552.3740,0.67
484612063,0.20,0.01,0.01,0.08,1.19,9.75,0.19,0.01,0.00,0.28,1.44,9.77,0.19,0.02,0.01,0.12,1.22,9.88,0.19,0.02,-0.01,0.50,1.12,9.83,0.18,0.03,-0.04,2.14,0.96,9.22,3938.4287,10552.3740,0.67
484616435,0.20,0.01,0.01,0.13,1.27,9.86,0.20,0.01,0.00,0.34,1.46,9.80,0.20,0.02,0.00,0.15,1.18,9.75,0.20,0.02,-0.00,0.50,0.99,9.76,0.20,0.03,-0.04,2.24,0.93,9.67,3938.4287,10552.3740,0.67
484622133,0.21,0.01,0.01,0.12,1.25,9.73,0.21,0.01,-0.00,0.36,1.40,9.91,0.21,0.02,0.00,0.16,1.19,9.83,0.21,0.02,-0.01,0.49,1.11,10.13,0.20,0.03,-0.04,2.25,1.03,10.02,3938.4287,10552.3740,0.67
484626523,0.22,0.01,0.00,0.14,1.31,9.78,0.22,0.01,-0.00,0.38,1.48,9.61,0.22,0.01,0.01,0.20,1.22,9.79,0.21,0.01,-0.01,0.49,1.10,10.04,0.21,0.02,-0.05,2.34,1.01,10.21,3938.4287,10552.3740,0.67
484630833,0.23,0.01,0.01,0.17,1.26,9.80,0.23,0.00,0.00,0.40,1.50,9.85,0.23,0.01,0.01,0.21,1.25,9.86,0.23,0.00,-0.00,0.52,1.07,10.19,0.23,0.01,-0.04,2.38,0.92,10.62,3938.4287,10552.3740,0.67
484635038,0.24,0.01,0.00,0.26,1.28,9.81,0.24,0.00,-0.00,0.47,1.53,9.82,0.24,0.00,0.00,0.26,1.27,9.76,0.24,-0.01,0.00,0.61,1.10,10.07,0.24,-0.01,-0.05,2.44,1.02,10.19,3938.4287,10552.3740,0.67
484639264,0.24,0.01,0.01,0.35,1.32,9.77,0.24,0.00,-0.00,0.58,1.53,9.65,0.24,-0.00,0.00,0.36,1.31,9.94,0.24,-0.02,-0.01,0.72,1.18,10.05,0.24,-0.02,-0.05,2.48,1.10,9.79,3938.4287,10552.3740,0.67
484643591,0.24,0.01,0.01,0.40,1.34,9.75,0.25,-0.00,-0.00,0.67,1.63,9.77,0.24,-0.00,0.01,0.47,1.29,9.81,0.24,-0.02,-0.00,0.80,1.12,9.73,0.24,-0.02,-0.05,2.52,1.05,9.57,3938.4287,10552.3740,0.67
484647980,0.25,0.01,0.01,0.50,1.40,9.85,0.25,0.00,-0.00,0.70,1.63,9.78,0.25,-0.00,0.00,0.52,1.34,9.74,0.25,-0.02,-0.00,0.90,1.17,9.75,0.25,-0.02,-0.05,2.57,1.15,9.11,3938.4287,10552.3740,0.67
484652368,0.24,0.01,0.01,0.58,1.39,9.75,0.24,0.01,-0.00,0.79,1.58,9.66,0.24,-0.00,0.00,0.61,1.35,9.65,0.24,-0.01,-0.00,0.94,1.19,9.49,0.24,-0.00,-0.05,2.52,1.24,8.76,3938.4287,10552.3740,0.67
484656760,0.23,0.01,0.01,0.55,1.43,9.75,0.23,0.01,0.00,0.79,1.63,9.72,0.23,0.01,0.00,0.63,1.40,9.49,0.23,0.00,-0.00,0.99,1.24,9.48,0.22,0.00,-0.04,2.55,1.21,8.65,3938.4287,10552.3740,0.67
484660890,0.22,0.01,0.01,0.43,1.42,9.71,0.22,0.01,-0.00,0.69,1.64,9.74,0.22,0.01,0.00,0.48,1.41,9.65,0.21,0.01,-0.00,0.88,1.25,9.64,0.21,0.02,-0.04,2.47,1.19,8.64,3938.4287,10552.3740,0.67
484664963,0.21,0.01,0.02,0.38,1.55,8.79,0.21,0.01,0.00,0.66,1.77,9.92,0.21,0.02,0.01,0.44,1.40,9.69,0.19,0.02,-0.00,0.86,1.20,9.11,0.20,0.03,-0.04,2.55,1.22,8.92,3938.4287,10552.3740,0.67
484668957,0.19,0.01,0.01,0.27,1.41,9.52,0.18,0.01,0.00,0.49,1.63,9.92,0.18,0.02,0.00,0.33,1.38,9.61,0.18,0.02,0.00,0.69,1.32,9.67,0.18,0.04,-0.04,2.32,1.23,9.43,3938.4287,10552.3740,0.67
484674010,0.17,0.01,0.01,0.24,1.47,9.71,0.16,0.01,0.00,0.48,1.68,9.65,0.16,0.02,0.00,0.26,1.40,9.78,0.16,0.03,-0.00,0.64,1.26,9.51,0.16,0.04,-0.03,2.28,1.20,9.68,3938.4287,10552.3740,0.67
484678073,0.16,0.01,0.01,0.19,1.45,9.70,0.16,0.01,-0.00,0.38,1.65,9.58,0.16,0.02,0.01,0.23,1.40,9.85,0.16,0.02,-0.00,0.53,1.24,10.04,0.16,0.03,-0.03,2.35,1.10,10.19,3938.4287,10552.3740,0.67
484682186,0.16,0.01,0.01,0.17,1.44,9.76,0.16,0.01,0.00,0.40,1.59,9.66,0.16,0.01,0.00,0.21,1.33,9.72,0.16,0.01,-0.00,0.54,1.20,10.11,0.16,0.02,-0.03,2.37,1.12,10.19,3938.4287,10552.3740,0.67
484686264,0.16,0.01,0.01,0.19,1.43,9.70,0.16,0.01,0.00,0.43,1.60,9.63,0.16,0.01,0.01,0.23,1.35,9.70,0.15,0.00,-0.00,0.56,1.26,10.15,0.15,0.00,-0.03,2.38,1.24,10.19,3938.4287,10552.3740,0.67
484690649,0.16,0.01,0.01,0.17,1.48,9.75,0.15,0.00,0.00,0.37,1.74,9.71,0.16,0.00,0.00,0.18,1.43,9.75,0.15,-0.01,-0.00,0.54,1.25,9.97,0.15,-0.01,-0.03,2.33,1.16,10.19,3938.4287,10552.3740,0.67
484695038,0.16,0.01,0.01,0.21,1.41,9.81,0.16,0.01,0.00,0.45,1.63,9.74,0.16,0.00,0.00,0.23,1.40,9.79,0.16,-0.01,-0.00,0.60,1.32,10.00,0.16,-0.02,-0.03,2.29,1.20,9.73,3938.4287,10552.3740,0.67
484699330,0.16,0.01,0.01,0.19,1.36,9.78,0.16,0.00,0.00,0.44,1.63,9.75,0.16,-0.00,0.00,0.25,1.41,9.82,0.16,-0.01,-0.00,0.58,1.33,9.85,0.16,-0.02,-0.03,2.30,1.28,9.44,3938.4287,10552.3740,0.67
484703607,0.17,0.01,0.01,0.17,1.41,9.85,0.17,0.01,0.00,0.46,1.71,9.71,0.17,-0.00,0.01,0.25,1.45,9.74,0.16,-0.01,-0.00,0.54,1.40,9.61,0.16,-0.01,-0.03,2.21,1.33,9.15,3938.4287,10552.3740,0.67
484707865,0.17,0.01,0.01,0.20,1.51,9.88,0.17,0.01,0.00,0.44,1.69,9.84,0.17,0.01,0.01,0.22,1.47,9.66,0.17,-0.00,0.00,0.58,1.32,9.65,0.17,-0.00,-0.03,2.27,1.27,9.04,3938.4287,10552.3740,0.67
484712211,0.18,0.01,0.01,0.20,1.50,9.85,0.18,0.01,0.01,0.42,1.76,9.68,0.18,0.01,0.01,0.25,1.50,9.68,0.18,0.01,0.00,0.57,1.33,9.50,0.18,0.01,-0.03,2.25,1.22,8.93,3938.4287,10552.3740,0.67
484716621,0.18,0.01,0.01,0.13,1.50,9.81,0.19,0.01,0.01,0.38,1.71,9.70,0.18,0.02,0.01,0.19,1.45,9.72,0.18,0.02,-0.00,0.53,1.29,9.69,0.18,0.02,-0.03,2.13,1.24,8.97,3938.4287,10552.3740,0.67
484720998,0.19,0.01,0.01,0.07,1.54,9.84,0.18,0.01,0.00,0.33,1.78,9.75,0.18,0.02,0.01,0.12,1.50,9.77,0.18,0.02,0.00,0.46,1.44,9.65,0.18,0.03,-0.03,2.11,1.27,9.36,3938.4287,10552.3740,0.67
484725365,0.19,0.01,0.01,0.10,1.57,9.76,0.19,0.01,0.01,0.32,1.82,9.71,0.18,0.02,0.01,0.12,1.55,9.59,0.18,0.03,-0.00,0.44,1.37,9.97,0.18,0.03,-0.03,2.24,1.30,9.91,3938.4287,10552.3740,0.67
484729721,0.20,0.01,0.01,0.12,1.55,9.87,0.20,0.01,0.00,0.34,1.81,9.68,0.20,0.02,0.01,0.12,1.63,9.83,0.20,0.02,0.00,0.51,1.42,10.11,0.19,0.03,-0.03,2.25,1.36,9.87,3938.4287,10552.3740,0.67
484734012,0.21,0.01,0.01,0.10,1.53,9.71,0.21,0.01,0.00,0.33,1.74,9.68,0.21,0.02,0.01,0.14,1.50,9.72,0.21,0.01,0.00,0.48,1.46,10.01,0.20,0.02,-0.04,2.27,1.37,10.03,3938.4287,10552.3740,0.67
484738283,0.22,0.01,0.02,-0.01,1.47,9.85,0.21,0.01,0.00,0.20,1.69,9.70,0.21,0.01,0.01,0.07,1.46,9.78,0.21,0.01,0.00,0.35,1.43,10.05,0.21,0.01,-0.04,2.22,1.34,10.10,3938.4287,10552.3740,0.67
484742549,0.22,0.01,0.01,-0.22,1.53,9.80,0.22,0.01,0.00,-0.01,1.74,9.63,0.22,0.01,0.01,-0.13,1.50,9.78,0.22,-0.00,0.00,0.20,1.41,10.05,0.22,-0.00,-0.04,2.01,1.23,10.07,3938.4287,10552.3740,0.67
484746913,0.23,0.01,0.02,-0.23,1.49,9.75,0.23,0.01,0.01,-0.02,1.73,9.68,0.22,0.00,0.01,-0.23,1.54,9.80,0.22,-0.01,-0.00,0.13,1.36,9.99,0.22,-0.00,-0.03,1.86,1.32,9.85,3938.4287,10552.3740,0.67
484751342,0.22,0.01,0.02,-0.33,1.44,9.68,0.22,0.01,0.01,-0.13,1.67,9.61,0.22,0.00,0.01,-0.30,1.39,9.56,0.21,-0.01,0.01,0.02,1.28,9.75,0.21,-0.01,-0.04,1.77,1.20,9.70,3938.4287,10552.3740,0.67
484756594,0.21,0.01,0.02,-0.44,1.34,9.63,0.21,0.01,0.01,-0.24,1.61,9.63,0.21,0.00,0.01,-0.37,1.36,9.65,0.20,-0.01,0.00,-0.02,1.26,9.48,0.20,-0.00,-0.03,1.62,1.15,9.33,3938.4287,10552.3740,0.67
484760665,0.19,0.01,0.01,-0.47,1.48,9.54,0.19,0.01,0.01,-0.28,1.64,9.58,0.19,0.01,0.01,-0.46,1.26,9.57,0.19,-0.00,0.01,-0.10,1.14,9.60,0.19,-0.00,-0.03,1.45,1.05,9.07,3938.4287,10552.3740,0.67
484765797,0.16,0.01,0.01,-0.62,1.48,9.46,0.16,0.01,0.01,-0.40,1.71,9.57,0.16,0.01,0.01,-0.59,1.38,9.33,0.15,0.01,0.01,-0.26,1.30,9.37,0.16,0.01,-0.03,1.43,1.25,9.12,3938.4287,10552.3740,0.67
484769805,0.13,0.00,0.01,-0.61,1.48,9.51,0.13,0.01,0.01,-0.36,1.73,9.49,0.13,0.01,0.01,-0.54,1.42,9.44,0.13,0.01,0.00,-0.22,1.28,9.52,0.13,0.02,-0.02,1.43,1.28,9.14,3938.4287,10552.3740,0.67
484773810,0.11,0.01,0.01,-0.53,1.56,9.46,0.11,0.01,0.01,-0.38,1.75,9.50,0.11,0.01,0.01,-0.53,1.47,9.39,0.10,0.02,0.00,-0.16,1.40,9.50,0.10,0.02,-0.01,1.44,1.38,9.25,3938.4287,10552.3740,0.67
484777819,0.09,0.00,0.01,-0.51,1.52,9.58,0.09,0.01,0.01,-0.25,1.71,9.62,0.09,0.01,0.01,-0.45,1.45,9.65,0.09,0.02,0.01,-0.10,1.30,9.71,0.08,0.02,-0.01,1.65,1.24,9.70,3938.4287,10552.3740,0.67
484782209,0.08,0.00,0.01,-0.41,1.52,9.66,0.08,0.00,0.01,-0.19,1.65,9.59,0.08,0.01,0.01,-0.36,1.44,9.63,0.08,0.02,0.00,-0.01,1.31,9.78,0.08,0.02,-0.01,1.67,1.18,9.79,3938.4287,10552.3740,0.67
484786642,0.07,0.00,0.01,-0.37,1.47,9.68,0.07,0.01,0.00,-0.11,1.67,9.64,0.07,0.01,0.01,-0.30,1.42,9.70,0.07,0.01,0.00,0.04,1.30,9.81,0.07,0.01,-0.01,1.78,1.19,9.95,3938.4287,10552.3740,0.67
484791037,0.07,0.00,0.01,-0.24,1.49,9.75,0.07,0.00,0.00,-0.03,1.71,9.66,0.07,0.01,0.01,-0.17,1.47,9.72,0.06,0.01,0.00,0.14,1.29,9.91,0.07,0.00,-0.01,1.93,1.21,10.05,3938.4287,10552.3740,0.67
484798713,0.07,0.00,0.01,-0.09,1.52,9.75,0.07,0.00,0.00,0.16,1.71,9.70,0.07,0.00,0.00,-0.05,1.47,9.79,0.07,-0.00,0.00,0.33,1.30,9.97,0.07,-0.01,-0.01,2.07,1.24,9.73,3938.4287,10552.3740,0.67
484803066,0.07,0.00,0.01,-0.08,1.57,9.75,0.07,0.00,0.00,0.22,1.74,9.69,0.07,0.00,0.01,0.01,1.50,9.71,0.07,-0.01,0.00,0.38,1.34,9.77,0.07,-0.01,-0.01,2.07,1.30,9.59,3938.4287,10552.3740,0.67
484807356,0.08,0.00,0.01,-0.01,1.54,9.80,0.08,0.00,0.01,0.25,1.73,9.69,0.07,0.00,0.01,0.07,1.52,9.75,0.07,-0.00,0.00,0.41,1.38,9.77,0.07,-0.01,-0.01,2.13,1.26,9.42,3938.4287,10552.3740,0.67
484811637,0.08,0.00,0.00,0.01,1.52,9.74,0.08,0.00,0.00,0.28,1.78,9.71,0.08,0.00,0.00,0.05,1.50,9.71,0.08,0.00,-0.00,0.43,1.40,9.69,0.08,0.00,-0.01,2.07,1.27,9.38,3938.4287,10552.3740,0.67
484815919,0.09,0.00,0.01,0.05,1.55,9.80,0.08,0.00,0.00,0.27,1.73,9.70,0.09,0.01,0.01,0.10,1.50,9.73,0.08,0.00,0.00,0.44,1.38,9.74,0.08,0.00,-0.01,2.11,1.31,9.35,3938.4287,10552.3740,0.67
484820278,0.09,0.01,0.01,0.08,1.58,9.77,0.09,0.01,0.00,0.29,1.76,9.64,0.09,0.01,0.00,0.13,1.53,9.76,0.08,0.01,-0.00,0.47,1.41,9.83,0.08,0.01,-0.01,2.15,1.30,9.41,3938.4287,10552.3740,0.67
484824680,0.09,0.00,0.00,0.08,1.56,9.77,0.09,0.01,0.00,0.29,1.79,9.70,0.09,0.01,0.00,0.10,1.48,9.67,0.09,0.01,0.00,0.51,1.42,9.83,0.09,0.01,-0.02,2.19,1.26,9.51,3938.4287,10552.3740,0.67
484829046,0.10,0.01,0.01,0.08,1.58,9.72,0.10,0.00,0.00,0.30,1.80,9.74,0.10,0.01,0.01,0.12,1.51,9.88,0.09,0.01,0.00,0.52,1.37,9.71,0.09,0.01,-0.02,2.20,1.31,9.75,3938.4287,10552.3740,0.67
484833483,0.11,0.00,0.01,0.09,1.56,9.82,0.10,0.01,0.00,0.31,1.76,9.78,0.10,0.01,0.00,0.15,1.47,9.64,0.10,0.01,0.00,0.52,1.34,9.98,0.10,0.01,-0.02,2.20,1.31,9.74,3938.4287,10552.3740,0.67
484837876,0.11,0.01,0.01,0.11,1.61,9.74,0.11,0.00,0.00,0.33,1.77,9.74,0.11,0.01,0.00,0.13,1.55,9.82,0.11,0.00,0.00,0.52,1.45,9.76,0.11,0.01,-0.02,2.15,1.33,9.97,3938.4287,10552.3740,0.67
484842190,0.12,0.01,0.01,0.09,1.61,9.84,0.12,0.01,0.00,0.32,1.85,9.68,0.12,0.01,0.01,0.16,1.56,9.77,0.12,0.00,-0.00,0.50,1.44,10.06,0.12,0.00,-0.02,2.23,1.35,9.67,3938.4287,10552.3740,0.67
484846499,0.13,0.01,0.01,0.04,1.62,9.77,0.13,0.01,0.00,0.31,1.85,9.73,0.13,0.00,0.00,0.11,1.59,9.81,0.13,-0.00,-0.00,0.48,1.45,9.86,0.13,-0.00,-0.02,2.24,1.30,9.75,3938.4287,10552.3740,0.67
484850567,0.14,0.01,0.01,0.08,1.61,9.78,0.14,0.01,0.00,0.31,1.86,9.69,0.14,0.00,0.00,0.13,1.57,9.74,0.14,-0.00,0.00,0.47,1.44,9.84,0.14,0.00,-0.02,2.15,1.36,9.74,3938.4287,10552.3740,0.67
484854696,0.14,0.01,0.01,0.07,1.63,9.74,0.14,0.00,0.00,0.34,1.88,9.64,0.14,0.00,0.01,0.11,1.61,9.68,0.14,-0.00,0.00,0.50,1.46,9.75,0.14,-0.00,-0.02,2.16,1.43,9.42,3938.4287,10552.3740,0.67
484858850,0.14,0.01,0.01,0.11,1.64,9.70,0.14,0.01,0.00,0.36,1.85,9.76,0.14,0.00,0.00,0.12,1.59,9.78,0.13,0.00,-0.00,0.48,1.49,9.70,0.14,-0.00,-0.02,2.25,1.39,9.51,3938.4287,10552.3740,0.67
484863958,0.14,0.01,0.01,0.09,1.65,9.75,0.14,0.01,0.00,0.36,1.92,9.70,0.14,0.01,0.00,0.16,1.65,9.73,0.14,0.00,0.00,0.52,1.46,9.59,0.14,0.00,-0.02,2.18,1.36,9.21,3938.4287,10552.3740,0.67
484868041,0.14,0.01,0.01,0.09,1.68,9.75,0.14,0.01,0.00,0.32,1.91,9.68,0.14,0.01,0.00,0.13,1.64,9.69,0.14,0.00,0.00,0.47,1.48,9.76,0.14,0.01,-0.02,2.18,1.38,9.29,3938.4287,10552.3740,0.67
484872057,0.14,0.01,0.01,0.09,1.66,9.72,0.14,0.01,0.00,0.31,1.90,9.69,0.14,0.01,0.00,0.10,1.64,9.64,0.14,0.01,0.00,0.48,1.50,9.61,0.13,0.01,-0.02,2.13,1.41,9.43,3938.4287,10552.3740,0.67
484876011,0.14,0.01,0.01,0.03,1.69,9.76,0.14,0.01,0.01,0.27,1.88,9.69,0.14,0.01,0.00,0.07,1.65,9.75,0.14,0.01,0.00,0.48,1.47,9.87,0.14,0.01,-0.03,2.16,1.40,9.36,3938.4287,10552.3740,0.67
484880337,0.14,0.01,0.01,-0.03,1.68,9.74,0.14,0.01,0.00,0.28,1.86,9.81,0.14,0.01,0.00,0.07,1.65,9.85,0.14,0.01,-0.00,0.43,1.47,9.65,0.13,0.01,-0.02,2.08,1.34,9.48,3938.4287,10552.3740,0.67
484884711,0.15,0.01,0.01,0.04,1.65,9.71,0.15,0.01,0.00,0.24,1.90,9.64,0.15,0.02,0.00,0.08,1.64,9.56,0.15,0.01,0.00,0.41,1.45,9.89,0.15,0.01,-0.03,2.20,1.36,9.58,3938.4287,10552.3740,0.67
484889151,0.16,0.01,0.01,-0.01,1.60,9.83,0.16,0.01,0.00,0.21,1.83,9.69,0.16,0.01,0.00,0.08,1.60,9.60,0.15,0.01,-0.00,0.36,1.43,9.88,0.15,0.02,-0.03,2.13,1.35,9.67,3938.4287,10552.3740,0.67
484894880,0.17,0.01,0.01,0.04,1.70,9.83,0.16,0.01,0.00,0.21,1.87,9.69,0.17,0.01,0.00,0.04,1.57,9.86,0.16,0.01,0.00,0.43,1.48,10.17,0.16,0.01,-0.03,2.11,1.36,9.68,3938.4287,10552.3740,0.67
484899115,0.18,0.01,0.01,0.05,1.69,9.64,0.17,0.01,0.00,0.22,1.87,9.69,0.17,0.01,0.01,0.05,1.62,9.91,0.17,0.01,-0.00,0.40,1.49,9.82,0.17,0.02,-0.03,2.15,1.35,9.67,3938.4287,10552.3740,0.67
484903494,0.18,0.01,0.01,0.04,1.67,9.67,0.18,0.01,0.00,0.23,1.92,9.66,0.17,0.01,0.00,0.06,1.65,9.56,0.17,0.01,0.00,0.39,1.49,9.87,0.17,0.01,-0.03,2.11,1.45,9.86,3938.4287,10552.3740,0.67
484907783,0.18,0.01,0.01,0.04,1.69,9.81,0.18,0.01,-0.00,0.28,1.93,9.80,0.19,0.01,0.00,0.08,1.78,9.87,0.18,0.00,-0.00,0.45,1.61,9.61,0.18,0.00,-0.03,2.16,1.39,9.65,3938.4287,10552.3740,0.67
484912016,0.19,0.01,0.01,0.09,1.63,9.70,0.19,0.01,0.00,0.26,1.87,9.63,0.19,0.01,0.01,0.09,1.58,9.67,0.19,0.00,-0.00,0.48,1.52,9.97,0.19,0.01,-0.04,2.15,1.47,9.40,3938.4287,10552.3740,0.67
484916310,0.19,0.01,0.01,0.03,1.73,9.54,0.18,0.01,0.01,0.26,1.94,9.60,0.18,0.01,0.01,0.04,1.66,9.77,0.18,0.00,0.01,0.42,1.51,9.61,0.18,0.01,-0.03,2.05,1.43,9.46,3938.4287,10552.3740,0.67
484920646,0.18,0.01,0.00,0.13,1.77,9.41,0.17,0.01,-0.00,0.37,1.92,9.46,0.17,0.01,0.01,0.15,1.71,9.69,0.17,0.00,-0.00,0.49,1.58,9.78,0.16,0.00,-0.03,2.18,1.57,9.48,3938.4287,10552.3740,0.67
484925082,0.17,0.01,0.01,0.17,1.77,9.54,0.16,0.00,0.00,0.46,1.98,9.56,0.16,0.00,0.00,0.25,1.73,9.56,0.16,0.00,0.00,0.60,1.58,9.73,0.16,0.00,-0.03,2.27,1.54,9.50,3938.4287,10552.3740,0.67
484929483,0.16,0.01,0.01,0.21,1.78,9.63,0.15,0.00,0.00,0.42,1.99,9.47,0.15,0.00,0.00,0.23,1.75,9.63,0.15,-0.00,0.00,0.61,1.60,9.70,0.15,0.00,-0.03,2.23,1.51,9.48,3938.4287,10552.3740,0.67
484933885,0.15,0.01,0.01,0.20,1.79,9.63,0.14,0.00,0.00,0.39,2.00,9.62,0.14,0.00,0.01,0.24,1.70,9.62,0.14,-0.00,-0.00,0.59,1.64,9.74,0.14,0.00,-0.03,2.29,1.57,9.58,3938.4287,10552.3740,0.67
484938291,0.14,0.00,0.01,0.18,1.81,9.57,0.14,0.00,0.00,0.41,1.95,9.58,0.14,0.00,0.00,0.27,1.71,9.78,0.13,-0.00,-0.00,0.60,1.64,9.74,0.14,0.00,-0.02,2.27,1.58,9.52,3938.4287,10552.3740,0.67
484942603,0.13,0.01,0.01,0.22,1.77,9.56,0.13,0.00,-0.00,0.44,2.02,9.56,0.13,0.00,0.00,0.23,1.77,9.69,0.13,-0.00,0.00,0.62,1.58,9.61,0.13,-0.00,-0.02,2.25,1.55,9.43,3938.4287,10552.3740,0.67
484946632,0.13,0.00,0.01,0.16,1.81,9.61,0.12,0.00,0.00,0.43,2.06,9.66,0.12,0.00,0.01,0.23,1.79,9.69,0.12,0.00,0.00,0.57,1.68,9.68,0.12,-0.00,-0.02,2.26,1.61,9.36,3938.4287,10552.3740,0.67
484950707,0.12,0.00,0.01,0.20,1.81,9.68,0.12,0.00,0.00,0.38,2.05,9.67,0.12,0.00,0.01,0.20,1.77,9.52,0.12,0.00,-0.00,0.59,1.65,9.52,0.12,0.00,-0.02,2.26,1.59,9.36,3938.4287,10552.3740,0.67
484954820,0.12,0.00,0.01,0.16,1.83,9.66,0.12,0.00,0.00,0.39,1.97,9.62,0.12,0.00,0.00,0.22,1.79,9.59,0.11,0.00,-0.00,0.63,1.68,9.76,0.11,0.00,-0.02,2.25,1.59,9.33,3938.4287,10552.3740,0.67
484963323,0.09,0.00,0.01,0.13,1.87,9.53,0.09,0.00,0.00,0.33,2.09,9.46,0.09,0.00,0.01,0.16,1.76,9.50,0.09,0.00,0.00,0.47,1.65,9.62,0.09,0.00,-0.02,2.18,1.61,9.46,3938.4287,10552.3740,0.67
484967382,0.08,0.00,0.01,0.13,1.84,9.41,0.08,0.00,0.00,0.30,2.05,9.44,0.08,0.00,0.01,0.15,1.82,9.55,0.07,0.00,0.00,0.50,1.69,9.63,0.08,0.00,-0.01,2.19,1.64,9.41,3938.4287,10552.3740,0.67
484971395,0.06,-0.00,0.01,0.09,1.82,9.53,0.06,-0.00,0.00,0.33,2.05,9.45,0.06,0.00,0.01,0.15,1.78,9.48,0.06,0.00,0.00,0.48,1.64,9.64,0.06,0.00,-0.01,2.13,1.61,9.35,3938.4287,10552.3740,0.67
484975616,0.04,0.00,0.01,0.11,1.84,9.48,0.04,-0.00,0.01,0.35,2.05,9.46,0.04,0.00,0.00,0.18,1.84,9.49,0.04,0.00,0.00,0.54,1.70,9.64,0.04,0.00,-0.00,2.19,1.61,9.40,3938.4287,10552.3740,0.67
484979795,0.02,-0.00,0.00,0.16,1.87,9.56,0.02,-0.00,0.01,0.38,2.07,9.53,0.03,0.00,0.00,0.17,1.81,9.60,0.03,0.00,0.00,0.54,1.65,9.70,0.03,0.00,0.00,2.21,1.61,9.34,3938.4287,10552.3740,0.67
484984134,0.01,-0.00,0.00,0.19,1.85,9.57,0.01,-0.00,0.01,0.39,2.08,9.50,0.01,-0.00,0.00,0.25,1.84,9.55,0.02,0.00,0.00,0.53,1.67,9.58,0.02,-0.00,0.00,2.21,1.64,9.44,3938.4287,10552.3740,0.67
484988555,-0.00,-0.00,0.00,0.18,1.86,9.58,0.00,-0.00,0.00,0.41,2.04,9.50,0.00,-0.00,0.00,0.21,1.83,9.57,0.00,0.00,0.00,0.60,1.64,9.67,0.01,-0.00,0.00,2.27,1.59,9.41,3938.4287,10552.3740,0.67
484992955,-0.01,-0.00,0.00,0.20,1.84,9.70,-0.01,-0.00,0.00,0.47,2.08,9.61,-0.00,-0.00,0.00,0.27,1.82,9.59,-0.00,0.00,0.00,0.57,1.69,9.72,-0.00,0.00,0.01,2.26,1.59,9.41,3938.4287,10552.3740,0.67
484997301,-0.01,-0.00,0.01,0.23,1.90,9.62,-0.01,-0.00,0.01,0.45,2.14,9.55,-0.01,-0.00,0.00,0.22,1.84,9.64,-0.00,0.00,0.01,0.60,1.66,9.77,-0.00,-0.00,0.01,2.28,1.56,9.44,3938.4287,10552.3740,0.67
485001660,-0.02,-0.00,0.00,0.26,1.85,9.63,-0.02,-0.00,0.01,0.48,2.07,9.60,-0.01,-0.00,0.00,0.27,1.79,9.68,-0.01,0.00,0.01,0.66,1.68,9.68,-0.01,-0.00,0.01,2.33,1.62,9.48,3938.4287,10552.3740,0.67
485006042,-0.02,-0.00,0.00,0.29,1.87,9.69,-0.01,-0.01,0.01,0.54,2.10,9.63,-0.01,0.00,0.01,0.39,1.83,9.71,-0.01,0.00,0.01,0.75,1.73,9.74,-0.01,-0.00,0.01,2.41,1.66,9.48,3938.4287,10552.3740,0.67
485010316,-0.02,-0.00,0.01,0.39,1.91,9.77,-0.02,-0.00,0.00,0.62,2.16,9.69,-0.01,-0.00,0.01,0.43,1.93,9.70,-0.01,0.00,0.01,0.77,1.78,9.72,-0.01,-0.00,0.01,2.49,1.74,9.47,3938.4287,10552.3740,0.67
485014552,-0.01,-0.00,0.01,0.44,1.98,9.75,-0.01,-0.00,0.00,0.69,2.21,9.67,-0.01,0.00,0.00,0.50,1.99,9.72,-0.01,0.00,0.01,0.90,1.89,9.78,-0.01,-0.00,0.01,2.55,1.79,9.48,3938.4287,10552.3740,0.67
485018811,-0.01,-0.00,0.01,0.42,1.90,9.88,-0.01,-0.00,0.01,0.67,2.20,9.68,-0.00,-0.00,0.01,0.50,1.95,9.73,-0.01,0.00,0.01,0.86,1.82,9.84,-0.01,0.00,0.01,2.56,1.78,9.50,3938.4287,10552.3740,0.67
485023202,0.00,0.00,0.01,0.40,1.97,9.78,0.00,-0.00,0.01,0.67,2.23,9.69,0.00,0.00,0.01,0.45,1.96,9.73,0.00,0.00,0.01,0.82,1.87,9.77,0.01,0.00,0.01,2.53,1.81,9.55,3938.4287,10552.3740,0.67
485028855,0.01,0.00,0.01,0.37,1.97,9.75,0.01,0.00,0.01,0.61,2.15,9.60,0.01,0.00,0.01,0.43,1.94,9.64,0.01,0.00,0.01,0.75,1.79,9.84,0.01,-0.00,0.01,2.46,1.73,9.61,3938.4287,10552.3740,0.67
485033262,0.02,0.00,0.01,0.39,1.91,9.71,0.02,-0.00,0.01,0.58,2.12,9.69,0.02,-0.00,0.01,0.41,1.87,9.68,0.02,0.00,0.01,0.73,1.78,9.87,0.02,-0.00,0.01,2.47,1.76,9.65,3938.4287,10552.3740,0.67
485037671,0.02,0.00,0.01,0.38,1.98,9.70,0.02,0.00,0.01,0.57,2.16,9.62,0.02,-0.00,0.01,0.42,1.90,9.67,0.02,-0.00,0.01,0.78,1.75,9.74,0.02,-0.01,0.01,2.46,1.73,9.54,3938.4287,10552.3740,0.67
485041758,0.02,0.00,0.01,0.37,1.94,9.69,0.03,-0.00,0.01,0.62,2.18,9.67,0.03,-0.00,0.01,0.40,1.99,9.69,0.02,-0.00,0.01,0.76,1.87,9.73,0.02,-0.00,0.01,2.43,1.78,9.48,3938.4287,10552.3740,0.67
485045799,0.03,0.00,0.01,0.41,2.01,9.67,0.02,-0.00,0.01,0.66,2.21,9.58,0.03,-0.00,0.01,0.43,2.01,9.71,0.03,-0.00,0.01,0.80,1.92,9.80,0.03,-0.00,0.01,2.48,1.85,9.41,3938.4287,10552.3740,0.67
485049813,0.02,-0.00,0.02,0.50,2.04,9.54,0.02,-0.00,0.01,0.65,2.29,9.53,0.02,-0.00,0.01,0.57,2.07,9.63,0.02,-0.00,0.01,0.92,1.96,9.65,0.03,-0.00,0.01,2.58,1.94,9.36,3938.4287,10552.3740,0.67
485054888,0.01,-0.00,0.02,0.62,2.11,9.68,0.02,-0.01,0.02,0.85,2.30,9.59,0.01,-0.00,0.02,0.65,2.13,9.57,0.01,0.00,0.01,1.00,2.04,9.72,0.02,-0.00,0.01,2.67,2.02,9.42,3938.4287,10552.3740,0.67
485058983,0.01,-0.00,0.02,0.69,2.40,9.65,0.01,-0.00,0.02,0.90,2.66,9.50,0.01,0.00,0.02,0.78,2.33,9.68,0.01,0.00,0.02,1.15,2.09,9.59,0.01,-0.00,0.01,2.80,1.79,9.36,3938.4287,10552.3740,0.67
485063080,0.01,-0.00,0.02,0.90,2.24,9.75,0.01,-0.00,0.02,1.06,2.56,9.65,0.01,-0.00,0.02,0.89,2.41,9.66,0.02,0.00,0.02,1.22,2.38,9.82,0.02,0.00,0.01,2.89,2.45,9.26,3938.4287,10552.3740,0.67
485067142,0.01,-0.00,0.02,0.92,2.28,9.65,0.01,-0.00,0.02,1.17,2.58,9.61,0.01,0.00,0.02,0.98,2.46,9.54,0.02,0.00,0.02,1.36,2.31,9.35,0.02,-0.00,0.02,2.99,2.32,9.42,3938.4287,10552.3740,0.67
485071528,0.01,-0.00,0.02,1.00,2.40,9.54,0.01,-0.00,0.02,1.26,2.67,9.50,0.01,0.00,0.02,1.09,2.56,9.59,0.01,0.00,0.02,1.42,2.49,9.78,0.01,-0.00,0.02,3.08,2.54,9.33,3938.4287,10552.3740,0.67
485075829,0.01,-0.00,0.03,1.09,2.55,9.83,0.01,-0.00,0.03,1.31,2.84,9.63,0.01,0.00,0.02,1.16,2.69,9.73,0.01,0.01,0.02,1.52,2.60,9.69,0.02,0.00,0.02,3.16,2.69,9.27,3938.4287,10552.3740,0.67
485080131,0.02,0.00,0.03,1.16,2.69,9.69,0.01,-0.00,0.03,1.40,2.99,9.58,0.01,0.00,0.03,1.17,2.84,9.73,0.02,0.01,0.03,1.55,2.81,9.65,0.02,0.01,0.02,3.12,2.98,9.39,3938.4287,10552.3740,0.67
485084439,0.02,-0.00,0.03,1.06,2.95,9.69,0.02,0.00,0.03,1.28,3.29,9.46,0.02,0.00,0.04,1.07,3.17,9.80,0.01,0.01,0.03,1.45,3.16,9.93,0.02,0.00,0.03,3.16,3.26,9.25,3938.4287,10552.3740,0.67
485088738,0.02,-0.00,0.04,0.95,2.92,9.78,0.02,-0.00,0.04,1.19,3.29,9.97,0.02,0.01,0.04,1.05,3.21,9.78,0.02,0.00,0.04,1.40,3.18,9.63,0.03,0.01,0.03,3.03,3.19,9.65,3938.4287,10552.3740,0.67
485093135,0.02,-0.00,0.04,0.90,2.86,9.48,0.02,-0.00,0.04,1.17,3.33,9.80,0.03,0.01,0.04,0.87,3.44,9.86,0.04,0.00,0.04,1.33,3.53,9.87,0.04,0.00,0.04,2.77,3.55,8.94,3938.4287,10552.3740,0.67
485097540,0.02,-0.00,0.05,0.95,3.04,9.82,0.02,0.00,0.05,1.20,3.27,9.58,0.02,0.01,0.05,0.94,3.05,9.46,0.02,0.00,0.05,1.37,3.06,9.99,0.03,-0.00,0.04,2.93,3.29,8.94,3938.4287,10552.3740,0.67
485101916,0.02,0.00,0.06,0.87,3.22,9.38,0.01,0.00,0.06,1.06,3.52,9.54,0.02,0.01,0.06,0.91,3.53,9.61,0.02,0.01,0.06,1.22,3.57,9.82,0.04,-0.00,0.05,2.89,3.79,9.26,3938.4287,10552.3740,0.67
485106286,0.00,-0.00,0.07,0.84,3.16,9.50,0.00,0.00,0.06,0.99,3.61,9.38,0.01,0.01,0.06,0.91,3.62,9.18,0.02,0.00,0.06,1.20,3.82,8.85,0.04,0.01,0.06,2.56,4.06,8.97,3938.4287,10552.3740,0.67
485110568,-0.01,-0.00,0.07,0.93,3.27,9.76,-0.02,0.00,0.07,1.12,3.71,9.16,-0.02,0.01,0.07,0.82,3.61,9.62,-0.01,0.01,0.07,1.35,3.74,9.97,0.00,0.01,0.07,2.71,3.73,9.01,3938.4287,10552.3740,0.67
485114832,-0.01,-0.00,0.08,0.96,3.42,9.60,-0.01,0.00,0.07,1.20,3.85,9.51,-0.01,0.01,0.08,0.92,3.90,9.18,-0.01,0.02,0.08,1.38,4.07,9.56,0.00,0.02,0.08,2.79,4.08,9.09,3938.4287,10552.3740,0.67
485119087,-0.02,0.00,0.08,1.00,3.46,9.69,-0.02,0.00,0.08,1.27,3.89,9.80,-0.02,0.02,0.08,0.98,3.78,9.70,-0.02,0.02,0.08,1.46,3.98,9.65,-0.00,0.02,0.09,2.94,4.08,9.05,3938.4287,10552.3740,0.67
485123426,-0.02,0.00,0.09,1.00,4.05,9.32,-0.02,0.00,0.09,1.23,4.38,9.75,-0.03,0.01,0.09,1.05,4.40,10.27,-0.03,0.02,0.09,1.46,4.40,8.90,-0.03,0.02,0.10,3.12,4.67,9.53,3938.4287,10552.3740,0.67
485127851,-0.03,-0.00,0.10,1.31,3.79,10.12,-0.03,0.01,0.10,1.36,4.30,9.50,-0.04,0.00,0.11,1.23,4.25,10.41,-0.02,0.01,0.10,1.63,4.58,10.06,0.01,0.02,0.10,3.10,5.14,9.66,3938.4287,10552.3740,0.67
485132232,-0.01,-0.00,0.11,1.30,4.33,9.78,-0.01,0.01,0.11,1.53,5.02,9.18,-0.01,0.01,0.11,1.25,5.23,9.36,0.00,0.01,0.11,1.73,5.62,10.09,0.02,0.01,0.11,3.15,5.93,9.59,3938.4287,10552.3740,0.67
485136264,-0.00,-0.00,0.12,1.20,4.33,10.13,-0.00,0.00,0.12,1.47,5.04,9.73,-0.00,0.01,0.12,1.27,5.19,9.67,0.01,0.00,0.13,1.56,5.64,9.62,0.03,0.00,0.12,3.12,6.16,9.78,3938.4287,10552.3740,0.67
485140384,0.01,0.00,0.15,1.31,5.29,9.96,0.00,0.01,0.14,1.55,5.48,9.47,0.00,0.01,0.14,1.35,5.34,9.37,0.03,-0.00,0.13,1.71,5.63,10.13,0.07,-0.01,0.13,3.37,5.91,10.47,3938.4287,10552.3740,0.67
485145464,0.03,0.00,0.16,1.29,5.32,9.65,0.02,-0.00,0.16,1.66,5.81,10.30,0.01,-0.01,0.16,1.35,6.18,11.45,0.02,-0.00,0.15,1.67,6.01,8.52,0.06,0.02,0.15,3.40,6.59,9.38,3938.4287,10552.3740,0.67
485149469,0.04,-0.01,0.16,1.48,5.05,9.61,0.04,0.01,0.17,1.70,5.72,9.30,0.03,0.01,0.16,1.47,5.69,7.88,0.03,0.01,0.17,1.78,5.57,9.49,0.06,-0.01,0.16,3.80,5.86,9.81,3938.4287,10552.3740,0.67
485153491,0.07,0.00,0.18,1.25,4.89,10.11,0.07,0.01,0.18,1.59,6.02,9.90,0.08,0.01,0.18,1.07,6.58,10.42,0.10,-0.00,0.18,1.83,6.89,9.68,0.11,0.02,0.16,2.99,6.87,7.50,3938.4287,10552.3740,0.67
485157529,0.08,-0.00,0.19,1.20,4.59,9.21,0.07,0.01,0.20,1.46,4.91,9.59,0.07,0.01,0.20,1.03,5.06,9.57,0.06,0.01,0.20,1.76,5.48,10.27,0.08,0.03,0.18,2.84,6.52,8.74,3938.4287,10552.3740,0.67
485163151,0.08,0.00,0.22,1.04,4.45,9.63,0.07,0.01,0.22,1.31,4.45,9.45,0.06,0.03,0.22,0.88,4.44,10.08,0.08,0.01,0.21,1.44,4.87,11.68,0.14,-0.00,0.19,3.00,5.85,9.86,3938.4287,10552.3740,0.67
485167431,0.09,0.00,0.23,0.93,5.00,9.30,0.08,0.01,0.23,1.12,5.56,10.18,0.07,0.01,0.24,1.07,5.51,10.23,0.10,0.02,0.23,1.30,5.29,8.72,0.16,0.05,0.20,3.07,6.13,9.64,3938.4287,10552.3740,0.67
485171809,0.10,0.00,0.25,1.11,4.67,9.51,0.09,0.03,0.24,1.19,5.28,7.81,0.07,0.04,0.24,0.99,5.28,8.79,0.08,0.04,0.24,1.47,5.86,9.09,0.17,0.01,0.22,2.72,6.35,9.44,3938.4287,10552.3740,0.67
485176167,0.05,0.00,0.27,1.02,4.63,8.79,0.07,0.01,0.26,0.96,5.62,8.94,0.08,0.01,0.27,0.83,5.79,8.50,0.10,0.03,0.26,0.99,6.52,10.23,0.14,0.06,0.25,3.24,7.63,10.09,3938.4287,10552.3740,0.67
485180471,0.06,-0.01,0.30,0.73,4.24,9.84,0.05,0.01,0.29,1.00,4.50,7.95,0.03,0.03,0.29,0.65,4.73,8.38,0.03,0.02,0.29,1.02,5.50,9.01,0.08,-0.00,0.28,2.69,7.01,8.95,3938.4287,10552.3740,0.67
485184700,0.04,-0.01,0.30,0.71,4.86,8.55,0.03,0.01,0.30,0.87,5.49,8.89,0.03,0.03,0.30,0.34,5.22,11.19,0.03,0.02,0.30,1.08,5.62,11.74,0.11,-0.01,0.29,2.59,5.78,8.97,3938.4287,10552.3740,0.67
485189030,0.01,-0.01,0.33,0.89,4.94,11.15,0.02,-0.02,0.34,1.30,5.58,9.53,0.04,-0.02,0.34,0.88,7.02,9.66,0.05,0.00,0.34,1.53,7.23,7.24,0.11,0.04,0.31,2.91,7.43,10.89,3938.4287,10552.3740,0.67
485193390,0.05,-0.01,0.34,0.96,5.40,10.21,0.03,0.01,0.34,1.39,5.42,9.45,-0.01,0.03,0.34,0.73,5.28,9.12,-0.02,-0.01,0.34,1.57,6.08,11.15,0.01,-0.08,0.35,2.35,6.10,6.22,3938.4287,10552.3740,0.67
485197773,0.03,-0.02,0.36,0.78,5.41,9.04,0.04,-0.03,0.36,0.94,6.00,10.05,0.06,-0.03,0.37,0.62,6.66,12.90,0.08,-0.01,0.36,1.42,6.24,13.34,0.15,0.02,0.34,2.74,6.18,9.54,3938.4287,10552.3740,0.67
485202132,0.08,-0.03,0.37,1.21,5.08,9.66,0.09,-0.01,0.37,1.23,5.73,10.20,0.09,-0.01,0.38,1.26,5.35,9.82,0.08,0.00,0.37,1.33,5.15,5.48,0.17,-0.03,0.34,3.14,6.06,10.13,3938.4287,10552.3740,0.67
485206456,0.11,-0.02,0.39,0.62,5.22,7.59,0.09,-0.03,0.39,0.91,6.08,10.02,0.09,-0.01,0.39,0.72,6.77,10.05,0.08,-0.03,0.39,0.86,6.24,10.87,0.19,-0.05,0.35,3.44,6.78,10.99,3938.4287,10552.3740,0.67
485210821,0.23,-0.01,0.41,0.62,7.75,7.94,0.23,-0.02,0.39,1.30,8.16,10.62,0.23,-0.03,0.41,0.82,7.95,8.02,0.20,-0.03,0.39,1.00,6.33,10.34,0.18,-0.05,0.36,3.35,7.04,6.20,3938.4287,10552.3740,0.67
485215131,0.21,-0.00,0.43,1.12,5.70,10.98,0.25,0.00,0.42,1.74,6.76,9.52,0.28,-0.00,0.43,1.12,6.92,7.51,0.32,-0.04,0.41,1.59,7.78,5.74,0.44,-0.09,0.34,3.77,7.66,14.15,3938.4287,10552.3740,0.67
485219384,0.66,0.18,0.45,0.98,10.27,2.50,0.67,0.08,0.41,2.47,9.55,7.77,0.67,-0.00,0.45,0.54,7.02,8.51,0.78,-0.27,0.41,3.77,8.66,-6.27,0.89,-0.16,0.26,-2.37,7.18,-4.05,3938.4287,10552.3740,0.67
485223723,0.27,0.11,0.45,-0.33,4.16,9.18,0.22,0.14,0.42,0.10,6.20,14.37,0.16,0.14,0.44,-0.48,6.94,24.54,0.10,0.01,0.44,1.59,6.82,20.87,0.11,-0.33,0.42,3.69,8.95,3.94,3938.4287,10552.3740,0.67
485227842,0.11,0.04,0.48,0.45,7.93,11.22,0.11,0.01,0.47,0.82,9.34,12.58,-0.04,-0.04,0.48,0.72,8.92,12.98,-0.23,0.17,0.49,1.72,8.28,5.74,-0.32,0.50,0.54,-0.61,5.61,-5.96,3938.4287,10552.3740,0.67
485231975,0.70,0.10,0.48,2.04,4.57,2.55,0.88,0.19,0.52,1.00,3.36,-14.82,0.95,0.16,0.52,0.64,4.40,-16.18,1.19,0.17,0.46,-0.52,5.65,-6.50,1.58,0.21,0.18,-0.53,4.20,-1.21,3938.4287,10552.3740,0.67
485236050,-0.11,0.08,0.51,-1.65,0.23,27.35,-0.14,0.19,0.47,0.19,0.35,25.01,-0.13,0.40,0.49,-0.59,-1.65,14.94,0.21,0.48,0.49,-1.60,-1.00,28.45,0.83,-0.12,0.37,3.44,10.57,10.03,3938.4287,10552.3740,0.67
485241142,-0.13,0.09,0.57,-1.03,6.24,23.91,-0.31,0.05,0.52,0.23,3.37,18.28,-0.35,0.09,0.53,-0.71,4.81,4.77,-0.33,0.30,0.56,-1.36,6.28,-17.37,-0.26,0.62,0.61,-4.43,4.71,-2.83,3938.4287,10552.3740,0.67
485245166,1.38,0.47,0.57,0.83,10.23,-18.17,1.69,0.43,0.50,1.24,16.43,-20.47,1.77,0.21,0.54,1.18,14.89,-39.64,1.66,0.16,0.47,-1.45,11.61,-3.25,1.24,0.20,0.22,3.70,2.88,22.80,3938.4287,10552.3740,0.67
485249194,-0.06,0.25,0.63,-4.26,2.30,28.97,0.28,0.27,0.57,-2.74,7.18,29.93,0.84,0.38,0.64,1.11,8.40,-6.46,1.61,0.25,0.57,-6.98,4.21,-12.26,2.20,-0.07,0.19,7.80,5.90,51.22,3938.4287,10552.3740,0.67
485253522,-0.62,0.23,0.55,0.47,2.25,36.27,-0.95,0.20,0.56,1.17,6.74,11.76,-1.43,0.23,0.58,-0.08,8.85,2.10,-1.66,0.49,0.61,-0.86,9.49,19.43,-1.45,0.03,0.88,2.10,15.27,-1.48,3938.4287,10552.3740,0.67
485257847,0.46,0.21,0.60,0.94,10.45,21.45,0.52,0.16,0.56,4.33,11.17,11.35,0.31,0.30,0.62,2.01,9.21,-15.68,-0.23,0.64,0.57,0.24,6.50,14.14,-0.84,0.68,0.72,7.91,-4.08,29.11,3938.4287,10552.3740,0.67
485262223,0.51,-0.16,0.63,2.00,-0.70,30.47,0.80,0.29,0.63,0.84,-1.19,20.65,1.22,0.77,0.65,1.08,1.69,29.13,1.67,1.09,0.58,0.89,1.55,26.56,2.22,0.73,0.21,8.46,4.72,24.08,3938.4287,10552.3740,0.67
485266597,0.83,0.27,0.67,2.01,3.26,-4.03,0.70,0.17,0.67,1.95,4.22,23.01,0.68,0.22,0.69,4.43,6.71,20.97,0.78,0.25,0.66,4.21,13.87,-21.32,0.46,1.19,0.56,-6.55,18.81,-8.26,3938.4287,10552.3740,0.67
485271009,0.73,0.53,0.61,-0.68,8.17,-43.52,0.73,0.57,0.54,-4.64,17.52,-23.87,0.51,0.25,0.63,1.17,12.70,-7.08,-0.15,-0.06,0.62,-2.31,5.53,14.87,-0.72,-0.39,0.72,0.72,0.86,31.33,3938.4287,10552.3740,0.67
485275344,-0.34,-0.03,0.63,-6.23,5.31,22.70,0.05,0.14,0.69,-7.23,14.71,15.87,0.24,-0.03,0.72,-4.71,23.64,32.42,-0.22,0.19,0.73,-8.78,4.47,9.38,0.38,0.01,0.68,13.87,-3.79,69.53,3938.4287,10552.3740,0.67
485279642,-1.10,-0.05,0.68,4.32,4.28,65.19,-0.92,-0.28,0.73,7.88,4.65,6.63,-0.52,-0.19,0.69,2.55,4.96,-19.99,0.18,-0.09,0.71,2.34,0.97,6.36,1.36,0.18,0.52,2.57,-1.82,7.12,3938.4287,10552.3740,0.67
485283928,0.46,0.16,0.69,4.85,-1.22,34.96,0.29,0.17,0.64,8.78,2.66,31.56,-0.14,0.25,0.65,6.36,8.18,-7.89,-0.89,0.04,0.66,2.92,16.72,32.16,-1.55,-0.83,0.93,17.52,24.44,54.42,3938.4287,10552.3740,0.67
485288210,1.17,0.01,0.80,2.08,8.30,-0.59,1.70,-0.03,0.73,-1.85,7.76,-24.28,1.70,-0.26,0.82,-0.72,2.83,-17.86,1.43,0.21,0.77,-3.17,-2.50,22.00,1.37,0.20,0.50,5.60,-11.59,22.50,3938.4287,10552.3740,0.67
485292499,1.07,-0.10,0.76,-2.67,-2.53,5.54,1.52,0.01,0.76,-1.97,-4.26,9.84,2.26,0.39,0.80,-2.39,-0.45,15.01,3.19,-0.01,0.68,-1.31,5.62,-19.15,4.19,-0.87,-0.00,-7.28,12.75,-13.63,3938.4287,10552.3740,0.67
485298017,-0.49,0.10,0.74,-2.32,3.27,20.45,-0.78,-0.14,0.75,-0.10,7.29,24.59,-1.26,-0.21,0.73,-0.93,7.73,3.03,-2.15,-0.42,0.80,-0.55,11.18,-6.51,-2.92,-0.59,1.33,-4.39,15.14,-0.36,3938.4287,10552.3740,0.67
485302312,0.40,0.18,0.78,1.60,8.29,1.92,0.31,0.17,0.74,-0.30,6.74,-5.79,-0.02,-0.05,0.76,-0.03,6.46,8.68,-0.42,-0.05,0.78,1.18,4.46,1.36,-0.51,-0.39,0.85,-0.16,-7.53,-10.91,3938.4287,10552.3740,0.67
485306723,1.49,0.19,0.88,-0.38,9.16,-8.14,2.12,0.18,0.82,-2.12,9.02,6.27,3.08,0.26,0.84,-0.28,5.78,0.49,4.37,0.13,0.74,-2.44,3.91,-6.17,4.36,0.37,-0.25,-3.56,1.00,-20.86,3938.4287,10552.3740,0.67
485311118,0.49,0.44,0.71,2.28,-2.55,3.64,0.38,0.40,0.71,1.77,4.95,3.23,0.19,0.36,0.72,1.68,7.90,1.26,-0.39,0.32,0.80,3.81,10.54,-8.27,-0.95,0.03,0.96,-3.64,23.77,-20.39,3938.4287,10552.3740,0.67
485315375,-0.58,0.46,0.83,-0.43,5.69,8.79,-0.85,0.47,0.80,0.62,7.90,17.00,-1.44,0.57,0.79,0.79,4.72,11.38,-2.53,0.59,0.90,2.24,1.02,0.81,-3.30,0.48,1.49,0.90,-11.78,-7.81,3938.4287,10552.3740,0.67
485319376,0.81,0.33,0.85,-3.35,6.47,26.91,0.98,0.55,0.80,-0.73,8.09,29.77,1.27,0.97,0.81,-2.14,8.22,26.11,2.13,1.16,0.86,-0.24,7.79,9.94,2.82,1.39,0.29,-2.38,-0.94,-21.18,3938.4287,10552.3740,0.67
485323447,1.41,0.37,0.79,-1.60,-1.12,1.43,1.59,0.58,0.83,-1.56,0.93,0.95,1.86,0.66,0.85,-1.39,-1.83,-1.32,2.60,1.11,0.70,-3.59,0.19,19.95,3.80,2.14,0.21,-2.99,13.35,-1.34,3938.4287,10552.3740,0.67
485331936,-0.46,0.39,0.83,-0.90,2.12,18.89,-0.75,0.55,0.81,-1.48,4.57,1.34,-1.24,0.60,0.85,-1.71,7.46,16.54,-1.76,0.67,0.87,-2.60,8.13,22.44,-2.07,0.25,1.25,8.15,-1.43,41.43,3938.4287,10552.3740,0.67
485336028,1.04,0.23,0.84,-1.77,5.61,15.74,1.45,0.13,0.88,-2.34,5.02,26.22,1.80,0.43,0.87,-5.18,5.79,76.03,2.48,0.74,0.96,3.38,-2.28,49.67,2.98,0.69,0.32,-0.35,-7.82,32.02,3938.4287,10552.3740,0.67
485340085,0.07,0.02,0.87,0.70,-4.90,33.52,0.19,0.04,0.86,2.35,-3.23,48.13,0.16,0.22,0.88,2.78,-2.72,42.98,-0.18,0.67,0.88,2.06,0.69,39.47,-0.75,0.90,0.98,7.74,9.11,36.43,3938.4287,10552.3740,0.67
485344061,-0.20,0.27,0.92,1.41,4.10,-4.31,-0.41,0.27,0.92,2.71,4.37,8.98,-0.58,0.07,0.94,1.70,5.08,6.06,-0.54,-0.06,0.96,2.63,1.01,7.85,-0.10,-0.19,0.98,4.04,-7.70,33.00,3938.4287,10552.3740,0.67
485348398,1.35,-0.13,0.92,-5.72,-18.33,-26.80,1.66,0.13,0.81,-8.84,-14.58,12.05,1.66,-0.02,0.74,-7.98,-9.24,54.70,1.26,-0.60,0.78,-4.78,-0.98,50.48,1.65,-0.37,0.48,2.34,21.31,48.29,3938.4287,10552.3740,0.67
485352710,0.64,-0.06,0.89,-3.87,10.05,-5.81,0.67,-0.28,0.91,-6.73,6.22,0.75,0.88,-0.76,0.90,-3.63,-1.10,17.06,1.35,-0.91,0.91,-2.75,-9.27,-7.99,1.81,-0.66,0.57,-7.65,-15.76,11.33,3938.4287,10552.3740,0.67
485357056,-0.33,0.14,0.85,1.30,-0.27,-8.29,-0.54,-0.06,0.85,0.60,-1.44,-5.83,-0.74,-0.68,0.80,0.35,-2.31,-0.66,-0.68,-1.61,0.83,1.92,2.74,4.38,-0.37,-1.95,0.96,-2.20,9.26,8.83,3938.4287,10552.3740,0.67
485361433,0.59,0.14,0.85,-2.36,6.15,15.48,0.65,-0.14,0.87,-0.84,7.21,17.08,0.70,-0.72,0.87,-1.72,4.47,5.48,0.66,-1.57,0.88,-0.85,4.39,13.56,0.91,-1.63,0.68,-1.46,-3.67,-17.31,3938.4287,10552.3740,0.67
485365796,1.02,0.00,0.87,-1.02,0.36,33.58,1.20,-0.09,0.82,0.27,5.58,21.12,1.44,-0.31,0.85,-0.68,4.45,9.89,1.84,-0.76,0.79,0.34,3.70,3.94,2.34,-0.95,0.37,0.04,4.63,-11.66,3938.4287,10552.3740,0.67
485370193,0.22,-0.16,0.88,1.59,-2.48,19.18,0.18,-0.08,0.87,2.26,-2.37,7.65,0.05,0.04,0.92,0.80,-4.32,11.22,-0.12,-0.03,0.92,3.50,-3.86,-3.89,-0.28,0.28,0.95,-2.59,2.51,-31.61,3938.4287,10552.3740,0.67
485374613,0.10,0.13,0.84,0.52,0.37,15.12,-0.04,0.19,0.83,1.61,0.07,15.15,-0.28,0.37,0.83,2.31,0.29,-4.58,-0.53,0.70,0.84,0.77,3.10,-18.22,-0.62,0.62,0.97,-5.14,-0.04,-28.76,3938.4287,10552.3740,0.67
485378947,0.86,0.33,0.89,-1.34,2.61,-0.88,1.04,0.51,0.83,-1.68,1.22,-1.95,1.22,0.73,0.83,-1.30,0.30,-1.79,1.64,0.80,0.79,-2.65,0.93,-5.68,1.90,1.06,0.49,-5.49,-2.62,-20.02,3938.4282,10552.3740,0.15
485383182,0.65,0.32,0.89,-3.47,0.92,-5.59,0.66,0.58,0.79,-5.09,1.60,-2.01,0.64,0.81,0.83,-3.95,2.34,7.43,0.85,1.05,0.79,-5.34,4.04,2.14,1.29,1.22,0.63,-5.78,7.77,-9.53,3938.4282,10552.3740,0.15
485387416,0.13,0.32,0.83,-4.05,1.49,-13.75,-0.04,0.38,0.81,-4.25,0.45,-10.28,-0.37,0.55,0.86,-3.54,-0.94,-16.96,-0.58,1.01,0.87,-5.66,-1.75,-9.66,-0.63,1.43,0.98,-3.32,-1.36,10.67,3938.4282,10552.3740,0.15
485391769,0.54,0.36,0.83,-2.03,4.46,-7.93,0.50,0.53,0.75,-3.31,2.38,-17.21,0.38,0.70,0.76,-3.58,-0.43,-16.01,0.27,0.69,0.78,-4.86,-1.50,0.19,0.55,0.43,0.70,-2.75,-2.37,6.35,3938.4282,10552.3740,0.15
485396168,0.59,0.43,0.84,-3.47,-9.44,11.42,0.63,0.48,0.76,-3.21,-11.89,28.30,0.73,0.54,0.76,-2.01,-7.28,27.53,0.73,0.53,0.77,-3.83,-4.03,21.94,1.34,0.32,0.60,5.81,4.45,32.46,3938.4282,10552.3740,0.15
485400556,-0.09,0.22,0.80,-0.79,-7.82,24.36,-0.38,0.12,0.73,0.41,-7.63,44.53,-0.51,0.37,0.61,-0.68,-4.00,63.13,-0.98,0.62,0.84,5.50,-1.21,38.66,-1.82,0.99,1.05,5.58,-4.12,28.53,3938.4282,10552.3740,0.15
485404982,-0.47,-0.04,0.75,4.53,-6.78,33.92,-0.48,0.10,0.73,4.57,-6.76,33.43,-0.52,0.32,0.70,3.75,-9.98,41.50,-0.73,0.91,0.68,3.96,-11.89,31.46,-1.09,1.17,0.95,12.54,-16.56,40.79,3938.4282,10552.3740,0.15
485409139,0.16,0.15,0.69,1.30,-6.35,34.47,0.29,0.25,0.68,3.41,-4.72,49.95,0.40,0.39,0.70,4.04,-10.06,24.49,0.87,0.55,0.68,0.94,-10.22,32.93,1.54,0.53,0.42,10.65,-11.12,50.82,3938.4282,10552.3740,0.15
485413234,0.69,0.10,0.70,-3.74,-3.93,1.91,0.83,0.18,0.67,-3.91,-5.21,7.73,0.91,0.19,0.71,-4.75,-8.40,8.19,1.03,-0.06,0.65,-5.28,-10.12,40.82,1.29,0.00,0.43,6.87,-10.04,55.57,3938.4282,10552.3740,0.15
485417244,0.28,-0.03,0.60,-6.46,-4.32,-6.62,0.43,-0.01,0.57,-7.68,-7.12,-4.23,0.58,-0.19,0.60,-7.26,-10.29,-0.10,0.56,-0.60,0.55,-8.10,-13.50,11.17,0.70,-0.93,0.45,-2.92,-16.75,36.32,3938.4282,10552.3740,0.15
485422272,0.07,0.01,0.50,-5.23,-3.81,-1.06,0.14,-0.20,0.50,-6.04,-5.75,0.15,0.12,-0.62,0.52,-5.91,-7.07,7.41,-0.04,-1.19,0.50,-5.99,-8.39,21.47,-0.02,-1.60,0.50,-0.83,-8.92,21.79,3938.4282,10552.3740,0.15
485426355,0.31,-0.12,0.47,-4.58,-1.67,5.57,0.33,-0.38,0.45,-4.11,-3.49,11.97,0.36,-0.72,0.43,-3.89,-7.04,15.90,0.34,-1.13,0.43,-3.24,-9.62,7.96,0.42,-1.49,0.35,-2.89,-15.62,-2.39,3938.4282,10552.3740,0.15
485431712,0.43,-0.15,0.39,0.00,-1.23,14.07,0.49,-0.38,0.35,1.22,-2.79,15.10,0.60,-0.66,0.36,0.98,-3.39,11.67,0.70,-0.92,0.33,1.70,-3.64,-8.37,0.91,-0.86,0.16,-2.21,-2.17,-13.41,3938.4282,10552.3740,0.15
485436124,0.62,-0.27,0.42,6.59,3.50,-2.84,0.77,-0.24,0.37,3.60,8.34,-11.46,1.02,-0.19,0.38,3.36,10.79,9.81,0.97,-0.38,0.36,5.38,6.12,10.35,0.67,-0.74,0.20,4.30,0.42,-27.86,3938.4282,10552.3740,0.15
485440533,0.56,0.01,0.29,1.47,-3.48,12.41,0.76,-0.16,0.27,4.23,-1.50,13.19,0.85,-0.26,0.25,4.47,-4.98,-18.77,0.48,-0.18,0.26,1.20,-7.14,-31.39,-0.13,0.06,0.21,-1.73,-6.15,-11.55,3938.4282,10552.3740,0.15
485444867,0.18,0.03,0.32,2.52,-5.07,7.57,0.36,0.29,0.28,1.88,-6.02,-3.42,0.50,0.51,0.29,1.68,-4.50,0.93,0.59,0.21,0.28,1.34,-3.42,-1.05,0.73,-0.23,0.19,1.23,-1.33,-21.04,3938.4282,10552.3740,0.15
485449181,-0.48,0.15,0.27,-2.65,-11.49,19.46,-0.53,0.16,0.23,-1.11,-12.09,25.96,-0.66,0.25,0.23,-1.07,-15.22,14.84,-0.77,0.66,0.30,-1.26,-13.69,4.72,-0.77,1.02,0.43,-3.01,-10.19,-21.34,3938.4282,10552.3740,0.15
485453487,-0.55,0.17,0.22,-2.45,-5.59,10.41,-0.75,0.33,0.21,-0.96,-9.57,9.02,-0.88,0.65,0.19,-1.62,-13.08,-6.47,-0.89,0.99,0.22,-2.20,-13.31,-4.71,-0.97,1.25,0.43,-3.22,-18.01,-2.74,3938.4282,10552.3740,0.15
485457786,-0.15,0.31,0.18,-0.75,-4.06,1.23,-0.11,0.46,0.16,-1.74,-4.26,-7.22,0.02,0.69,0.17,-1.77,-3.00,-1.72,0.32,0.96,0.19,-1.43,-4.53,-5.15,0.55,1.18,0.07,-1.98,-4.90,7.31,3938.4282,10552.3740,0.15
485462107,-0.50,0.26,0.14,-2.85,-3.33,14.94,-0.77,0.36,0.15,-1.89,-5.72,22.77,-1.03,0.66,0.16,-2.29,-10.17,29.24,-0.93,0.97,0.13,-1.44,-9.33,28.76,-0.93,0.96,0.36,3.74,-5.52,19.71,3938.4282,10552.3740,0.15
485466484,-1.02,0.09,0.06,0.09,-3.81,15.76,-1.30,0.16,0.08,0.60,-3.99,20.69,-1.68,0.39,0.06,0.90,-6.82,22.96,-1.98,0.96,0.13,0.51,-9.39,25.94,-2.51,1.15,0.56,7.60,-17.14,34.67,3938.4282,10552.3740,0.15
485470865,-0.39,-0.05,0.03,1.07,-3.69,21.80,-0.36,0.02,0.03,1.42,-4.84,23.89,-0.32,0.28,0.02,1.11,-7.43,28.00,-0.08,0.70,0.03,0.96,-10.07,37.43,0.35,0.98,-0.01,9.96,-14.58,48.65,3938.4282,10552.3740,0.15
485475243,0.07,-0.04,-0.01,0.61,-1.23,8.46,0.19,-0.01,-0.01,0.85,-1.33,7.36,0.32,-0.01,-0.00,0.12,-1.47,9.63,0.37,0.02,-0.02,-0.18,-0.82,25.42,0.29,0.23,-0.08,6.72,-0.32,53.27,3938.4282,10552.3740,0.15
485479645,-0.19,-0.00,-0.01,-1.79,1.55,3.60,-0.19,-0.03,-0.01,-1.92,0.98,4.29,-0.06,-0.19,-0.02,-2.20,-0.02,8.27,0.01,-0.74,-0.01,-2.77,-0.33,22.99,0.05,-1.28,-0.02,4.70,-0.58,48.36,3938.4282,10552.3740,0.15
485483913,-0.15,-0.02,-0.03,-2.27,1.75,7.90,-0.06,-0.15,-0.01,-2.26,2.30,10.58,0.13,-0.53,-0.02,-2.69,2.56,17.48,0.08,-1.18,-0.02,-1.80,2.28,21.65,0.08,-1.61,-0.05,2.09,0.57,23.61,3938.4282,10552.3740,0.15
485488181,0.06,-0.07,-0.01,-1.22,3.07,19.00,0.22,-0.25,-0.00,-0.27,3.18,16.78,0.49,-0.62,0.00,-0.77,2.41,11.71,0.59,-1.16,-0.02,-0.58,1.94,11.95,0.69,-1.42,-0.16,0.48,0.98,2.41,3938.4282,10552.3740,0.15
485492502,0.18,-0.06,-0.02,-0.17,1.47,9.63,0.27,-0.21,-0.01,-0.01,1.32,10.52,0.30,-0.47,-0.01,0.02,0.83,8.03,0.33,-0.80,-0.02,0.19,1.02,5.46,0.50,-1.13,-0.12,-0.02,3.08,-14.12,3938.4282,10552.3740,0.15
485496632,0.03,-0.06,-0.02,-0.81,2.38,6.22,0.06,-0.21,-0.01,-0.60,2.46,7.07,0.02,-0.40,-0.01,-0.22,1.69,1.91,-0.05,-0.43,-0.02,-0.39,1.80,-7.25,-0.08,-0.44,-0.01,-3.25,2.60,-21.01,3938.4282,10552.3740,0.15
485500826,-0.12,-0.03,-0.02,-0.49,2.93,9.67,-0.12,-0.04,-0.02,0.24,3.00,7.56,-0.10,-0.03,-0.02,0.41,2.15,-4.38,-0.05,-0.05,-0.02,0.03,1.87,-14.81,0.01,-0.13,-0.02,-4.09,1.81,-23.48,3938.4282,10552.3740,0.15
485505099,-0.21,0.01,-0.03,-0.23,2.34,9.25,-0.27,0.09,-0.03,0.13,2.76,8.27,-0.29,0.24,-0.03,0.00,2.86,5.26,-0.30,0.36,-0.02,0.63,3.23,-1.28,-0.34,0.42,0.05,-1.54,4.86,-18.45,3938.4282,10552.3740,0.15
485510221,-0.28,0.03,-0.02,-0.41,3.15,10.03,-0.36,0.17,-0.02,-0.10,3.44,7.36,-0.41,0.44,-0.02,-0.08,3.25,2.84,-0.42,0.80,-0.01,0.14,2.93,-5.39,-0.46,1.06,0.09,-2.37,2.52,-11.91,3938.4282,10552.3740,0.15
485514304,-0.40,0.04,-0.02,-1.27,3.42,6.85,-0.52,0.10,-0.02,-0.89,3.29,11.89,-0.75,0.47,-0.03,-0.61,1.26,8.30,-0.70,1.08,-0.00,-2.38,0.45,22.94,-0.73,1.28,0.13,4.67,3.90,16.66,3938.4282,10552.3740,0.15
485518279,-0.39,0.00,-0.01,-0.67,3.09,11.31,-0.50,0.06,-0.00,-0.54,3.81,11.03,-0.72,0.33,-0.02,-0.89,4.56,10.44,-0.91,0.92,0.01,-0.24,5.55,11.21,-1.11,1.40,0.22,0.21,3.38,16.97,3938.4282,10552.3740,0.15
485522616,-0.44,0.02,-0.01,-0.78,1.94,8.65,-0.52,0.06,-0.00,-0.61,1.51,11.56,-0.64,0.22,-0.01,-1.22,0.14,16.68,-0.55,0.57,-0.00,-1.24,-0.14,34.53,-0.47,0.68,0.10,7.31,0.32,46.83,3938.4282,10552.3740,0.15
485526888,-0.30,-0.01,-0.01,-0.67,2.35,11.06,-0.30,-0.00,-0.00,-0.33,2.88,10.13,-0.30,-0.02,-0.01,-0.71,2.80,10.02,-0.39,-0.03,0.01,-0.91,2.10,15.61,-0.43,-0.02,0.08,4.30,0.12,44.21,3938.4282,10552.3740,0.15
485531222,-0.20,-0.02,-0.01,-0.96,1.22,10.29,-0.15,-0.05,-0.01,-0.74,1.13,11.72,0.01,-0.18,-0.01,-1.38,0.47,15.68,0.11,-0.58,-0.01,-1.26,0.66,30.53,0.18,-0.85,-0.05,6.40,0.67,42.98,3938.4282,10552.3740,0.15
485535653,-0.07,-0.04,-0.01,-0.41,2.62,11.72,0.02,-0.08,0.00,-0.11,2.92,11.37,0.24,-0.34,0.00,-0.44,2.67,10.74,0.30,-0.89,-0.00,-0.27,2.42,13.07,0.35,-1.30,-0.08,2.48,1.55,19.71,3938.4282,10552.3740,0.15
485540045,0.02,-0.05,-0.01,-0.18,1.66,9.72,0.14,-0.13,-0.00,-0.09,2.02,10.37,0.34,-0.43,0.00,-0.29,1.97,12.63,0.32,-0.90,-0.01,0.27,2.02,12.30,0.34,-1.17,-0.08,1.65,2.35,3.77,3938.4282,10552.3740,0.15
485544448,0.05,-0.05,-0.00,-0.31,2.24,10.08,0.13,-0.19,0.00,0.12,2.86,9.79,0.19,-0.39,0.00,0.02,2.86,7.55,0.20,-0.58,-0.01,0.47,2.50,1.07,0.29,-0.76,-0.06,-0.08,2.21,-4.97,3938.4282,10552.3740,0.15
485548765,0.03,-0.04,-0.00,0.03,2.77,10.50,0.06,-0.12,-0.00,0.41,3.38,9.03,0.07,-0.22,-0.00,0.82,3.31,2.28,0.02,-0.29,-0.00,0.64,2.79,-10.70,-0.06,-0.28,-0.00,-1.97,3.04,-14.23,3938.4282,10552.3740,0.15
485553003,-0.02,-0.00,-0.00,0.22,2.21,10.31,-0.05,0.03,-0.00,0.43,2.31,8.49,-0.03,0.08,-0.01,0.54,2.18,4.58,0.02,0.04,-0.00,0.94,2.13,-5.76,0.02,-0.00,-0.01,-1.88,2.45,-17.79,3938.4282,10552.3740,0.15
485557296,-0.02,0.02,-0.00,0.10,2.33,9.92,-0.08,0.10,-0.01,0.32,2.59,8.67,-0.12,0.24,-0.01,0.14,2.46,8.05,-0.13,0.41,-0.01,0.94,2.52,2.26,-0.18,0.57,0.03,-0.80,2.97,-14.40,3938.4282,10552.3740,0.15
485561530,-0.01,0.04,-0.00,0.08,2.72,10.10,-0.07,0.17,-0.01,-0.20,3.34,8.26,-0.12,0.41,-0.01,0.87,4.22,7.85,-0.09,0.70,-0.00,0.41,2.03,-1.98,-0.10,0.90,0.03,-0.70,1.98,-6.42,3938.4282,10552.3740,0.15
485567070,-0.09,0.04,-0.00,-0.22,3.60,8.82,-0.19,0.07,-0.00,-0.07,4.80,10.74,-0.35,0.26,-0.00,0.10,5.67,12.46,-0.53,0.80,0.00,0.18,4.76,5.23,-0.76,1.33,0.15,2.31,3.11,20.38,3938.4282,10552.3740,0.15
485571280,-0.02,0.03,0.00,0.10,1.16,9.66,-0.12,0.07,-0.00,0.16,0.51,9.20,-0.34,0.27,-0.00,-0.90,0.02,15.89,-0.30,0.69,-0.00,-0.04,0.33,30.60,-0.16,0.75,0.05,6.16,-0.23,33.58,3938.4282,10552.3740,0.15
485575843,0.10,-0.00,0.00,0.05,3.11,10.97,0.10,-0.00,-0.00,0.25,3.36,10.86,0.09,0.03,0.00,-0.02,2.85,11.14,0.06,0.13,-0.00,0.02,2.39,15.01,-0.10,0.32,0.01,3.87,-0.36,36.59,3938.4282,10552.3740,0.15
485580238,0.13,-0.01,-0.00,-0.06,1.72,9.01,0.13,-0.01,-0.01,0.10,2.01,10.05,0.22,-0.08,0.00,-0.47,1.75,14.00,0.30,-0.38,-0.01,-0.46,1.91,27.60,0.38,-0.61,-0.08,7.17,2.20,44.04,3938.4282,10552.3740,0.15
485584305,0.22,-0.03,0.00,0.07,2.72,11.58,0.29,-0.05,0.00,0.27,3.06,11.57,0.46,-0.25,0.01,-0.02,2.93,12.94,0.45,-0.71,-0.00,0.40,2.85,14.56,0.42,-1.01,-0.09,3.19,1.29,21.93,3938.4282,10552.3740,0.15
485588334,0.33,-0.04,0.01,0.12,1.90,10.12,0.44,-0.09,0.00,0.23,2.04,11.61,0.65,-0.33,0.01,-0.04,1.58,14.99,0.74,-0.79,-0.01,0.54,1.30,17.83,0.86,-1.08,-0.17,3.71,1.29,13.05,3938.4282,10552.3740,0.15
485592329,0.45,-0.04,0.02,0.15,2.73,10.17,0.57,-0.11,0.00,0.41,3.14,9.12,0.74,-0.35,0.01,0.42,3.26,6.79,0.74,-0.70,-0.01,0.79,2.86,0.38,0.70,-0.79,-0.15,-0.51,2.45,-4.97,3938.4282,10552.3740,0.15
485597347,0.33,-0.02,0.01,0.15,2.15,8.43,0.36,-0.09,-0.00,0.23,2.38,6.94,0.39,-0.22,0.00,0.05,2.51,7.91,0.37,-0.40,-0.01,0.90,2.35,4.02,0.35,-0.43,-0.08,-0.57,3.60,-12.87,3938.4282,10552.3740,0.15
485601355,0.26,-0.01,0.01,0.21,3.26,10.58,0.25,-0.04,0.00,0.53,3.74,7.50,0.20,-0.08,0.00,0.55,3.80,2.79,0.12,-0.08,-0.00,0.89,3.76,-6.31,0.05,-0.03,-0.02,-1.92,3.66,-16.26,3938.4282,10552.3740,0.15
485605414,0.24,0.02,0.01,0.17,2.40,10.89,0.22,0.08,0.00,0.50,2.41,9.16,0.23,0.19,0.01,0.58,1.91,5.39,0.29,0.25,-0.00,0.84,1.38,-2.53,0.35,0.22,-0.06,-0.96,1.33,-13.51,3938.4282,10552.3740,0.15
485609790,0.23,0.04,0.01,0.03,1.67,7.42,0.15,0.08,-0.00,0.17,1.57,9.13,-0.00,0.28,-0.01,-0.01,1.14,10.99,-0.01,0.61,-0.01,0.70,1.59,9.94,0.04,0.74,-0.00,0.84,3.37,-7.17,3938.4282,10552.3740,0.15
485614175,0.17,0.03,0.01,-0.02,3.53,9.22,0.09,0.07,-0.00,0.39,4.07,10.31,-0.06,0.29,0.00,0.49,3.70,5.74,-0.09,0.71,0.00,0.36,3.23,0.95,-0.21,1.07,0.04,0.42,2.72,5.99,3938.4282,10552.3740,0.15
485618487,0.15,0.04,0.01,0.20,1.29,8.21,0.04,0.09,-0.00,0.22,1.57,8.76,-0.16,0.30,-0.00,-0.43,1.72,13.45,-0.17,0.66,-0.00,0.35,2.54,21.36,-0.14,0.84,0.04,4.91,2.61,25.98,3938.4282,10552.3740,0.15
485622720,0.21,0.02,0.01,0.09,2.79,11.43,0.15,0.04,0.00,0.26,3.07,10.87,0.04,0.14,0.01,0.05,2.83,11.59,-0.06,0.39,-0.00,0.16,2.59,14.71,-0.19,0.58,0.04,3.78,0.63,29.34,3938.4282,10552.3740,0.15
485626967,0.33,0.00,0.01,0.07,1.56,10.87,0.32,0.01,-0.00,0.27,1.47,12.67,0.32,0.04,0.00,-0.20,0.74,16.50,0.38,0.04,-0.00,-0.08,0.49,28.34,0.44,-0.01,-0.09,7.13,0.05,39.18,3938.4282,10552.3740,0.15
485631201,0.49,-0.02,0.01,0.08,2.45,11.40,0.55,-0.03,-0.01,0.30,2.82,11.13,0.67,-0.12,0.01,-0.02,2.59,11.64,0.67,-0.35,-0.01,0.11,2.13,14.58,0.66,-0.44,-0.14,3.69,0.57,29.06,3938.4282,10552.3740,0.15
485635507,0.56,-0.03,0.01,-0.04,2.08,9.57,0.63,-0.06,-0.01,0.23,2.17,10.79,0.81,-0.21,0.01,-0.25,1.65,13.65,0.89,-0.61,-0.02,0.19,1.66,20.47,0.95,-0.85,-0.20,4.52,1.78,22.88,3938.4282,10552.3740,0.15
485639848,0.63,-0.03,0.01,0.17,2.74,9.19,0.72,-0.08,-0.01,0.32,3.22,9.15,0.87,-0.30,0.01,0.34,3.26,8.81,0.88,-0.67,-0.02,0.52,2.77,5.47,0.89,-0.88,-0.19,1.50,2.12,7.38,3938.4282,10552.3740,0.15
485644206,0.66,-0.02,0.01,0.14,1.78,9.34,0.73,-0.08,-0.01,0.31,2.05,9.77,0.85,-0.24,0.01,0.15,1.95,9.38,0.87,-0.55,-0.03,0.80,1.94,7.16,0.89,-0.70,-0.20,0.74,2.16,-4.31,3938.4282,10552.3740,0.15
485648560,0.64,-0.02,0.01,0.25,2.46,8.35,0.65,-0.08,-0.01,0.39,2.69,8.67,0.65,-0.15,0.00,0.32,2.37,7.33,0.66,-0.25,-0.02,1.11,2.85,0.33,0.67,-0.29,-0.15,-0.84,2.70,-11.33,3938.4282,10552.3740,0.15
485652845,0.59,-0.00,0.01,0.30,2.91,9.18,0.57,-0.01,-0.01,0.66,3.18,8.54,0.56,0.01,-0.00,0.82,2.67,3.48,0.56,0.04,-0.02,0.84,2.41,-3.59,0.57,0.08,-0.13,-0.94,2.86,-12.75,3938.4282,10552.3740,0.15
485657106,0.53,0.02,0.02,0.22,2.50,7.93,0.46,0.04,-0.01,0.42,2.76,8.49,0.38,0.18,-0.00,0.45,2.76,7.28,0.41,0.34,-0.02,0.81,2.99,3.72,0.44,0.40,-0.09,0.44,3.97,-6.15,3938.4282,10552.3740,0.15
485661346,0.48,0.01,0.01,0.27,3.14,9.42,0.41,0.04,-0.01,0.53,3.49,9.21,0.28,0.21,0.00,0.47,3.26,7.21,0.20,0.51,-0.02,0.74,3.22,3.83,0.08,0.81,-0.03,0.64,3.33,-0.15,3938.4282,10552.3740,0.15
485665625,0.46,0.03,0.01,0.20,2.39,8.90,0.35,0.08,-0.01,0.41,2.40,8.87,0.21,0.29,-0.00,-0.10,2.33,11.20,0.24,0.59,-0.01,0.65,1.69,11.45,0.30,0.72,-0.06,2.91,1.70,12.52,3938.4282,10552.3740,0.15
485669936,0.47,0.01,0.01,0.13,3.02,10.28,0.41,0.03,-0.01,0.38,3.17,10.66,0.30,0.15,-0.00,0.11,3.04,11.17,0.16,0.44,-0.01,0.24,3.09,14.60,0.02,0.73,-0.01,3.29,3.08,22.11,3938.4282,10552.3740,0.15
485674023,0.51,0.01,0.01,0.16,2.54,9.57,0.45,0.03,-0.01,0.39,2.40,10.58,0.40,0.13,0.01,-0.06,1.62,12.64,0.47,0.22,-0.02,0.14,0.97,19.19,0.54,0.20,-0.11,5.11,-0.15,30.65,3938.4282,10552.3740,0.15
485678070,0.60,-0.02,0.01,0.17,2.46,10.70,0.62,-0.02,-0.01,0.44,2.84,11.26,0.66,-0.04,0.00,0.01,2.76,13.46,0.61,-0.12,-0.02,0.29,2.82,19.62,0.54,-0.06,-0.12,4.84,2.23,30.34,3938.4282,10552.3740,0.15
485682135,0.68,-0.02,0.01,0.25,2.47,9.63,0.72,-0.04,-0.01,0.46,2.48,9.95,0.82,-0.10,0.00,0.15,1.90,11.65,0.91,-0.35,-0.02,0.37,1.49,16.77,1.00,-0.55,-0.21,4.33,0.54,24.89,3938.4282,10552.3740,0.15
485690478,0.76,-0.03,0.01,0.20,2.71,9.34,0.82,-0.08,-0.01,0.41,2.87,9.20,0.94,-0.23,0.00,0.19,2.62,9.56,0.99,-0.56,-0.03,0.70,2.45,8.64,1.02,-0.73,-0.22,1.63,2.26,4.55,3938.4282,10552.3740,0.15
485694431,0.77,-0.03,0.02,0.25,2.62,9.37,0.82,-0.08,-0.01,0.39,2.87,8.86,0.89,-0.22,-0.00,0.37,2.89,8.33,0.86,-0.44,-0.03,0.80,2.92,5.51,0.86,-0.51,-0.19,0.69,3.37,-2.90,3938.4282,10552.3740,0.15
485699687,0.76,-0.01,0.02,0.29,2.90,9.42,0.76,-0.05,-0.01,0.55,3.14,8.55,0.76,-0.07,0.01,0.51,2.85,6.87,0.78,-0.15,-0.03,0.98,2.72,1.80,0.80,-0.17,-0.18,0.10,3.18,-7.69,3938.4282,10552.3740,0.15
485704021,0.73,-0.01,0.01,0.26,3.26,9.56,0.70,-0.02,-0.01,0.51,3.56,8.94,0.65,0.04,0.00,0.43,3.60,6.82,0.63,0.11,-0.03,0.89,3.66,1.27,0.58,0.22,-0.13,-0.07,4.21,-7.10,3938.4282,10552.3740,0.15
485708381,0.68,0.00,0.02,0.27,3.17,9.16,0.62,0.02,-0.01,0.45,3.37,8.76,0.53,0.16,0.00,0.34,3.14,7.48,0.53,0.33,-0.02,0.71,3.10,4.39,0.51,0.45,-0.11,0.75,3.50,-1.48,3938.4282,10552.3740,0.15
485712788,0.65,0.01,0.02,0.25,3.03,9.28,0.58,0.04,-0.01,0.49,3.41,8.99,0.48,0.20,0.01,0.27,3.33,8.86,0.45,0.43,-0.01,0.68,3.30,7.49,0.40,0.62,-0.08,1.69,3.39,6.75,3938.4282,10552.3740,0.15
485717144,0.64,0.01,0.02,0.30,3.14,9.01,0.57,0.03,-0.00,0.43,3.24,9.44,0.45,0.18,0.02,0.18,2.76,10.67,0.45,0.41,-0.02,0.52,2.68,14.82,0.42,0.57,-0.09,3.47,2.69,15.94,3938.4282,10552.3740,0.15
485721434,0.65,-0.01,0.01,0.32,3.09,9.34,0.60,0.01,-0.01,0.45,3.33,9.33,0.54,0.10,0.01,0.23,3.09,10.66,0.50,0.24,-0.01,0.41,2.88,13.50,0.46,0.38,-0.10,3.74,2.29,23.06,3938.4282,10552.3740,0.15
485725652,0.67,-0.01,0.01,0.27,2.89,9.72,0.65,-0.01,-0.01,0.54,2.99,9.90,0.65,0.03,0.01,0.20,2.45,11.24,0.67,0.01,-0.02,0.36,2.25,18.37,0.68,0.01,-0.14,4.96,2.02,26.75,3938.4282,10552.3740,0.15
485729895,0.73,-0.03,0.01,0.35,2.98,10.08,0.75,-0.04,-0.01,0.61,3.18,10.07,0.81,-0.08,0.02,0.21,2.90,11.10,0.80,-0.24,-0.02,0.53,2.62,14.64,0.79,-0.29,-0.16,3.80,2.00,22.24,3938.4282,10552.3740,0.15
485734154,0.77,-0.03,0.01,0.27,3.01,9.37,0.81,-0.05,-0.01,0.40,3.11,9.84,0.92,-0.15,0.01,0.12,2.75,11.78,0.97,-0.40,-0.02,0.57,2.61,15.02,1.01,-0.52,-0.21,3.48,2.26,17.22,3938.4282,10552.3740,0.15
485738474,0.81,-0.04,0.02,0.23,3.24,8.73,0.86,-0.08,-0.00,0.37,3.51,8.65,0.96,-0.20,0.01,0.28,3.41,8.78,0.97,-0.45,-0.02,0.55,3.21,8.42,0.97,-0.55,-0.21,1.93,3.14,8.42,3938.4282,10552.3740,0.15
485742813,0.80,-0.03,0.02,0.34,3.37,8.72,0.83,-0.08,-0.01,0.55,3.56,8.43,0.89,-0.18,0.01,0.28,3.32,7.98,0.90,-0.39,-0.02,0.82,3.23,6.16,0.91,-0.48,-0.19,1.25,3.52,1.29,3938.4282,10552.3740,0.15
485747157,0.77,-0.02,0.03,0.57,3.53,8.87,0.77,-0.07,-0.00,0.74,3.85,8.45,0.79,-0.13,0.01,0.66,3.79,7.29,0.78,-0.23,-0.02,1.14,3.59,3.01,0.77,-0.25,-0.16,0.75,3.81,-3.37,3938.4282,10552.3740,0.15
485751532,0.73,-0.08,0.07,1.61,-7.01,2.54,0.69,-0.15,0.02,-0.02,-1.85,4.56,0.66,-0.20,0.05,0.52,-0.04,41.06,0.94,-0.33,0.02,2.21,-0.73,-42.02,1.25,0.14,-0.22,7.43,6.86,48.03,3938.4282,10552.3740,0.15
485755814,0.74,-0.04,-0.01,1.89,-2.90,7.31,0.48,-0.01,-0.02,1.72,-0.59,1.15,0.37,0.01,0.01,1.65,5.12,12.10,0.03,0.24,-0.01,2.56,8.95,-5.78,-0.15,-0.29,0.01,3.68,11.40,18.50,3938.4282,10552.3740,0.15
485760079,0.57,-0.05,0.02,1.19,7.93,18.33,0.57,-0.05,0.02,2.54,8.54,19.03,0.52,0.10,0.02,1.38,6.56,18.20,0.52,0.14,-0.01,4.24,5.07,19.76,0.23,0.27,-0.06,2.84,-0.68,-8.75,3938.4282,10552.3740,0.15
485764317,0.78,-0.04,0.03,2.93,0.52,8.48,0.78,-0.03,0.01,2.72,0.03,10.84,0.78,0.07,0.02,3.13,-0.28,16.78,0.90,0.30,-0.01,3.55,-0.12,6.87,1.09,0.57,-0.21,4.31,2.31,7.05,3938.4282,10552.3740,0.15
485768364,0.74,-0.00,0.02,3.66,3.85,4.75,0.69,0.01,-0.01,3.93,3.78,6.00,0.67,0.07,0.01,3.85,3.83,3.79,0.66,0.21,-0.02,3.63,4.02,6.53,0.60,0.39,-0.13,5.73,4.69,14.05,3938.4282,10552.3740,0.15
485772453,0.58,-0.02,0.02,3.50,4.51,6.77,0.49,-0.00,-0.00,3.54,5.10,4.86,0.41,0.07,0.01,3.16,5.25,6.37,0.37,0.05,-0.00,3.34,4.87,12.99,0.34,-0.02,-0.07,6.93,4.50,21.07,3938.4282,10552.3740,0.15
485776526,0.61,-0.05,0.03,3.77,4.46,11.76,0.57,-0.05,0.01,4.07,4.85,12.56,0.59,-0.03,0.02,3.66,5.11,14.50,0.55,-0.08,-0.00,4.35,5.20,17.04,0.49,-0.09,-0.10,7.11,4.60,15.66,3938.4282,10552.3740,0.15
485781595,0.80,-0.05,0.04,5.09,3.82,12.15,0.82,-0.08,0.02,5.47,4.01,12.22,0.89,-0.09,0.03,5.11,3.57,12.78,0.94,-0.18,-0.00,5.59,3.31,14.34,0.96,-0.19,-0.18,8.14,3.25,14.35,3938.4282,10552.3740,0.15
485785611,0.87,-0.04,0.03,5.28,3.26,8.73,0.89,-0.05,0.02,5.36,3.34,8.02,0.93,-0.12,0.03,5.15,3.25,8.51,0.94,-0.26,0.00,5.41,3.02,9.03,0.93,-0.28,-0.18,7.07,3.17,11.23,3938.4282,10552.3740,0.15
485789577,0.85,-0.04,0.03,4.24,3.86,8.25,0.85,-0.08,0.02,4.47,3.90,8.35,0.90,-0.13,0.02,4.26,3.62,9.15,0.93,-0.28,-0.01,4.64,3.35,10.28,0.93,-0.36,-0.19,6.34,3.32,8.27,3938.4282,10552.3740,0.15
485793852,1.05,-0.00,0.04,4.11,0.38,5.18,0.98,-0.22,0.01,3.67,0.69,8.65,0.93,-0.37,0.03,4.15,1.68,10.20,0.97,-0.36,-0.01,4.02,4.62,-1.14,0.98,-0.06,-0.18,6.76,7.31,26.26,3938.4282,10552.3740,0.15
485798102,0.85,-0.09,0.01,4.99,1.77,17.30,0.79,-0.09,0.01,5.33,2.09,6.32,0.78,-0.05,0.01,4.50,3.44,5.02,0.72,-0.19,0.01,4.87,5.26,2.25,0.61,-0.58,-0.13,5.23,6.26,4.58,3938.4282,10552.3740,0.15
485802415,0.97,-0.02,0.05,4.54,5.05,8.72,0.96,-0.12,0.02,5.03,6.28,11.58,0.90,-0.13,0.03,4.37,5.76,17.21,0.81,-0.19,0.01,5.92,5.16,17.12,0.68,-0.13,-0.13,6.93,3.69,0.83,3938.4282,10552.3740,0.15
485806808,1.05,-0.06,0.05,4.68,3.18,12.32,1.08,-0.08,0.03,5.16,3.06,14.16,1.16,-0.05,0.06,5.38,2.62,10.90,1.30,-0.00,0.01,5.61,2.34,0.84,1.44,0.09,-0.26,4.72,2.87,-1.98,3938.4282,10552.3740,0.15
485811178,0.93,-0.03,0.06,5.33,2.58,4.03,0.90,-0.03,0.04,5.26,3.24,4.02,0.91,-0.02,0.06,5.16,4.10,5.52,0.90,-0.02,0.03,5.42,4.87,6.20,0.86,0.12,-0.14,6.41,7.19,5.14,3938.4282,10552.3740,0.15
485815554,0.72,-0.02,0.09,4.60,5.83,7.09,0.64,-0.01,0.05,4.68,6.51,5.25,0.58,0.03,0.07,4.43,6.71,4.77,0.56,0.00,0.04,4.78,6.48,3.61,0.57,-0.02,-0.06,5.41,6.18,5.77,3938.4282,10552.3740,0.15
485819844,0.83,0.02,0.10,4.23,7.65,5.55,0.79,-0.06,0.06,4.78,7.07,4.08,0.66,-0.04,0.07,3.82,5.09,10.40,0.58,0.03,0.05,5.16,4.54,13.78,0.54,0.10,-0.06,7.41,4.72,7.79,3938.4282,10552.3740,0.15
485824059,2.16,0.40,0.15,6.87,19.30,-32.41,2.74,0.36,0.04,1.99,32.61,-43.02,3.07,-0.04,0.03,1.76,31.52,-8.48,2.91,-0.76,-0.11,7.28,20.80,-62.72,1.55,0.01,-0.36,-12.04,-1.17,-29.46,3938.4282,10552.3740,0.15
485828311,1.23,0.47,0.09,2.10,2.52,9.42,1.81,0.69,0.06,1.65,2.44,-4.52,2.15,0.43,0.11,-0.60,4.62,-1.31,1.93,-0.63,0.01,2.57,0.30,24.10,2.06,-1.25,-0.38,3.71,11.80,-13.61,3938.4282,10552.3740,0.15
485833727,-0.12,-0.16,0.10,2.70,5.86,16.98,-0.35,-0.08,0.11,3.50,8.36,23.70,-0.74,0.01,0.10,3.15,10.06,31.41,-2.09,0.47,0.14,6.07,8.94,22.75,-3.22,1.29,0.72,3.01,4.88,-27.25,3938.4282,10552.3740,0.15
485837889,4.36,-2.09,0.19,-27.02,3.52,-124.84,4.36,-0.77,0.06,-26.64,10.45,-30.87,4.37,1.53,0.10,-24.40,16.50,81.18,4.06,2.12,-0.10,-15.35,19.39,84.63,2.67,1.43,-0.63,-4.26,13.11,-22.90,3938.4282,10552.3740,0.15
485842303,1.71,-0.16,0.29,19.29,-2.39,41.09,2.52,-1.71,0.16,25.97,-4.89,76.45,3.73,-2.20,0.03,33.16,-14.24,28.74,4.37,-0.26,-0.29,27.58,-29.36,-114.79,4.36,2.26,-1.56,-14.46,7.63,-98.73,3938.4282,10552.3740,0.15
485846696,-2.99,0.29,-0.08,25.89,-28.99,28.21,-4.37,0.73,0.14,26.82,-11.49,16.24,-4.36,0.18,0.08,21.19,11.58,45.16,-4.35,-1.85,0.42,22.02,42.35,103.52,-4.37,-4.12,2.55,47.65,81.74,45.59,3938.4282,10552.3740,0.15
485851089,-0.85,0.31,0.17,0.60,15.45,61.30,-1.26,0.17,0.25,0.67,9.76,115.46,-1.62,-0.43,0.20,5.54,-7.98,153.96,-1.54,-1.03,0.30,15.33,-32.22,43.86,-1.11,-1.58,0.50,6.01,-90.15,-40.62,3938.4282,10552.3740,0.15
485855407,2.93,-0.58,0.16,-11.75,-6.62,20.71,4.36,-0.69,0.09,-10.62,-3.10,33.10,4.37,-0.56,0.13,-13.51,1.61,58.26,4.37,0.38,-0.14,-9.97,10.43,106.14,4.36,2.72,-2.11,3.47,28.46,28.14,3938.4282,10552.3740,0.15
485859409,2.13,-0.16,0.21,-0.15,0.93,-46.97,2.49,-0.19,0.16,-1.67,-0.13,-80.02,2.45,-0.41,0.23,0.59,1.86,-129.89,1.84,-0.35,0.15,-7.66,4.30,-145.99,1.05,0.03,-0.05,-25.72,22.20,1.73,3938.4282,10552.3740,0.15
485863452,-2.60,0.46,-0.03,-4.07,-2.29,-27.28,-3.71,0.45,0.04,-4.57,-8.02,-20.75,-4.36,-0.01,-0.02,-5.01,-12.73,-8.79,-4.35,-1.71,0.16,-5.22,-13.88,15.76,-4.37,-4.37,1.19,1.01,-7.06,13.03,3938.4282,10552.3740,0.15
485868478,-0.34,-0.17,0.11,6.93,14.13,63.62,-0.18,-0.23,0.15,8.41,20.10,68.87,-0.03,-0.53,0.17,7.40,19.90,76.16,-0.35,-0.43,0.17,14.14,12.03,44.83,-0.57,0.24,0.25,12.79,-12.85,-42.99,3938.4282,10552.3740,0.15
485872557,2.97,-0.29,0.17,11.60,-3.02,26.16,3.61,-0.30,0.04,12.32,-6.71,27.36,4.21,0.39,0.06,12.85,-10.87,12.13,4.37,1.24,-0.13,10.98,-15.20,8.11,4.36,1.87,-1.31,12.76,-17.24,-14.95,3938.4282,10552.3740,0.15
485876614,1.71,-0.14,0.04,2.89,-7.69,-22.79,1.91,-0.12,-0.00,2.21,-6.69,-36.54,1.95,0.07,0.03,2.62,-3.96,-48.67,1.87,0.76,-0.04,0.04,0.47,-42.59,1.53,2.08,-0.33,-5.78,18.68,3.76,3938.4282,10552.3740,0.15
485881011,-0.84,0.25,-0.06,1.68,5.24,-8.83,-1.63,0.37,-0.00,1.58,4.23,-11.67,-2.41,0.52,-0.03,1.91,3.09,-17.85,-2.91,0.11,0.07,0.43,1.73,-14.50,-3.17,-1.18,0.64,0.32,3.29,7.38,3938.4282,10552.3740,0.15
485885400,-0.26,-0.01,0.01,7.47,9.14,36.75,-0.44,0.04,0.05,8.54,11.29,49.57,-0.54,0.09,0.05,7.21,11.89,68.02,-0.88,0.26,0.07,11.04,11.65,73.30,-1.21,0.60,0.28,20.99,2.69,17.52,3938.4282,10552.3740,0.15
485889693,1.76,-0.22,0.04,11.86,4.63,22.42,2.08,-0.16,0.03,12.49,4.20,19.74,2.47,0.23,0.09,12.64,1.35,14.47,3.15,0.84,-0.04,12.67,-1.91,3.12,3.73,1.54,-0.69,12.56,-7.21,14.81,3938.4282,10552.3740,0.15
485893976,1.27,-0.12,0.09,9.67,-0.69,-15.50,1.39,-0.05,-0.00,8.84,-1.47,-19.61,1.52,0.11,0.03,8.00,0.18,-14.27,1.60,0.22,-0.03,6.85,2.83,12.77,1.58,0.50,-0.31,12.56,13.74,39.49,3938.4282,10552.3740,0.15
485898243,-0.26,0.04,-0.02,9.60,5.96,0.52,-0.53,0.06,0.03,9.62,6.40,-1.31,-0.78,-0.14,0.01,9.58,6.60,-5.38,-1.17,-0.63,0.06,9.17,6.20,-9.07,-1.51,-1.24,0.31,8.68,7.01,23.56,3938.4282,10552.3740,0.15
485902558,0.04,-0.03,0.00,10.63,6.65,22.73,-0.03,-0.03,0.03,10.92,6.01,29.78,0.02,-0.25,0.03,9.97,4.94,44.00,-0.07,-0.74,0.03,12.19,3.39,52.90,-0.10,-1.16,0.04,20.84,-2.42,19.31,3938.4282,10552.3740,0.15
485906876,1.24,-0.20,0.06,11.86,4.86,20.85,1.58,-0.25,0.02,12.43,4.00,19.67,1.92,-0.40,0.04,12.66,2.40,14.66,2.18,-0.38,-0.02,12.77,0.05,4.28,2.43,-0.01,-0.48,12.14,-3.27,0.47,3938.4282,10552.3740,0.15
485911230,1.18,-0.13,0.01,10.89,0.03,-2.31,1.32,-0.14,-0.02,10.84,-0.94,-7.20,1.47,-0.19,0.01,10.64,-1.08,-7.07,1.68,-0.40,-0.05,10.46,-0.59,-1.70,1.79,-0.46,-0.38,11.07,5.07,3.91,3938.4282,10552.3740,0.15
485915597,0.26,-0.02,-0.05,10.48,4.61,3.19,0.14,-0.04,-0.03,10.33,4.72,1.58,-0.00,-0.25,-0.02,10.92,4.65,-3.87,-0.32,-0.55,-0.02,10.61,3.97,-11.02,-0.58,-0.81,0.08,8.00,5.48,-9.23,3938.4282,10552.3740,0.15
485923208,0.72,-0.11,-0.00,12.54,2.41,17.54,0.80,-0.12,-0.04,12.87,2.01,18.20,0.89,-0.04,-0.02,13.01,1.75,17.38,0.93,0.15,-0.06,13.70,2.20,11.60,0.90,0.51,-0.24,13.52,1.47,-12.01,3938.4282,10552.3740,0.15
485927554,0.91,-0.08,-0.00,12.76,3.20,8.02,0.94,-0.05,-0.05,13.13,2.71,4.43,0.98,0.20,-0.03,13.26,2.44,-4.54,1.10,0.44,-0.09,12.83,0.40,-9.03,1.21,0.67,-0.30,10.75,0.32,-7.88,3938.4282,10552.3740,0.15
485931758,0.45,-0.03,-0.06,11.86,4.41,3.70,0.32,0.06,-0.08,11.59,5.31,1.66,0.24,0.25,-0.06,11.22,6.34,2.47,0.18,0.37,-0.08,11.47,6.03,5.08,0.09,0.45,-0.08,12.50,7.75,5.50,3938.4282,10552.3740,0.15
485936020,0.32,-0.05,0.00,12.86,5.70,11.01,0.17,0.09,-0.07,12.54,6.24,11.53,0.07,0.24,-0.06,12.53,6.84,10.90,-0.04,0.36,-0.04,12.67,6.75,10.16,-0.19,0.40,-0.01,14.41,5.00,5.91,3938.4282,10552.3740,0.15
485940355,0.61,-0.09,0.00,13.57,3.83,13.26,0.57,0.06,-0.07,13.99,3.93,14.14,0.65,0.25,-0.05,13.33,2.34,17.98,0.73,0.37,-0.07,14.54,0.80,18.40,0.75,0.53,-0.21,17.72,-0.18,15.77,3938.4282,10552.3740,0.15
485944729,0.83,-0.12,-0.01,13.78,3.99,8.90,0.87,0.02,-0.07,14.09,3.27,7.95,0.95,0.14,-0.07,13.73,1.96,7.97,0.97,0.26,-0.11,13.48,1.35,12.72,0.95,0.47,-0.27,16.76,2.46,19.92,3938.4282,10552.3740,0.15
485948829,0.74,-0.01,-0.04,13.78,4.35,7.16,0.74,0.03,-0.09,14.14,4.08,6.36,0.74,0.06,-0.05,13.58,5.56,7.66,0.77,0.02,-0.10,13.71,4.85,12.21,0.76,-0.03,-0.24,17.17,4.36,22.19,3938.4282,10552.3740,0.15
485952926,0.65,-0.03,-0.05,13.07,6.19,10.46,0.66,-0.01,-0.07,13.37,5.89,10.92,0.67,-0.05,-0.06,13.09,4.10,14.89,0.64,-0.21,-0.09,13.30,4.13,17.29,0.57,-0.29,-0.21,16.97,4.28,20.71,3938.4282,10552.3740,0.15
485958026,0.92,-0.09,-0.11,14.15,2.99,12.56,0.99,-0.06,-0.08,14.34,2.15,11.87,1.05,-0.16,-0.07,13.87,1.81,15.09,1.08,-0.32,-0.10,14.60,0.85,13.89,1.06,-0.37,-0.31,16.68,0.11,12.01,3938.4282,10552.3740,0.15
485962011,1.14,-0.09,-0.09,13.13,2.30,10.95,1.21,-0.09,-0.13,13.24,2.46,10.20,1.32,-0.16,-0.09,13.50,2.36,12.45,1.35,-0.32,-0.13,14.04,1.60,11.57,1.38,-0.36,-0.40,16.04,2.34,8.54,3938.4282,10552.3740,0.15
485965969,1.26,-0.01,-0.11,12.48,4.42,10.84,1.31,-0.07,-0.11,13.00,3.98,10.30,1.35,-0.16,-0.09,13.20,3.57,7.44,1.31,-0.32,-0.11,13.07,2.92,5.57,1.29,-0.34,-0.38,13.76,4.31,4.54,3938.4282,10552.3740,0.15
485971154,1.48,0.06,-0.08,10.07,4.85,11.98,1.47,-0.01,-0.11,10.19,4.97,10.64,1.49,-0.07,-0.09,9.76,3.91,9.04,1.48,-0.23,-0.14,10.10,2.89,8.50,1.42,-0.26,-0.42,10.49,2.09,-1.89,3938.4282,10552.3740,0.15
485975401,1.85,0.07,-0.06,8.59,2.87,14.44,1.83,0.02,-0.13,8.62,3.59,11.84,1.86,0.06,-0.09,8.55,3.69,10.16,1.83,-0.03,-0.16,9.15,2.60,5.80,1.78,0.02,-0.50,9.80,1.82,-3.64,3938.4282,10552.3740,0.15
485979822,2.16,0.10,-0.09,6.14,3.36,13.14,2.14,0.11,-0.16,6.50,3.68,10.35,2.18,0.17,-0.09,5.84,4.16,7.14,2.19,0.14,-0.19,5.88,3.23,0.21,2.12,0.27,-0.59,6.16,1.62,-1.75,3938.4282,10552.3740,0.15
485984221,2.21,0.24,-0.09,5.85,2.34,10.63,2.35,0.36,-0.18,5.79,3.70,4.72,2.42,0.32,-0.12,5.95,4.33,1.83,2.45,0.20,-0.21,6.16,1.95,-4.77,2.41,0.37,-0.64,5.23,1.29,-1.04,3938.4282,10552.3740,0.15
485988614,2.41,0.46,-0.08,4.50,1.62,14.01,2.50,0.59,-0.22,5.51,0.66,9.03,2.49,0.55,-0.15,3.09,4.83,8.56,2.35,0.24,-0.24,3.20,4.00,-1.60,2.22,0.29,-0.64,6.19,6.37,6.67,3938.4282,10552.3740,0.15
485992922,2.56,0.63,-0.08,0.56,6.24,19.98,2.61,0.57,-0.20,1.93,-0.34,9.66,2.46,0.60,-0.14,-0.54,-4.26,-12.35,2.39,0.28,-0.22,-1.06,-0.78,22.88,2.19,0.41,-0.69,1.02,-0.94,1.84,3938.4282,10552.3740,0.15
485997187,2.80,0.75,-0.13,-3.83,0.54,11.72,3.05,0.73,-0.23,-4.75,9.47,30.59,2.83,0.54,-0.15,-1.85,9.78,21.53,2.51,0.43,-0.37,-5.27,8.53,-4.47,2.28,0.56,-0.66,0.90,5.05,3.47,3938.4282,10552.3740,0.15
486001465,2.86,0.72,-0.05,-4.91,3.98,13.05,3.00,0.53,-0.21,-6.40,5.04,8.38,2.76,0.27,-0.16,-7.90,4.82,20.18,1.95,0.21,-0.22,-4.77,2.60,38.92,1.58,0.57,-0.57,4.38,4.05,38.94,3938.4282,10552.3740,0.15
486005728,2.34,0.66,-0.08,-9.02,12.21,44.12,2.21,0.51,-0.17,-7.53,14.60,39.02,2.01,0.12,-0.13,-6.77,10.83,28.78,1.86,-0.29,-0.24,-5.96,10.55,30.02,1.87,-0.17,-0.58,-0.33,9.13,52.68,3938.4282,10552.3740,0.15
486010014,2.74,0.21,-0.05,-8.28,10.88,48.81,2.77,0.49,-0.16,-7.10,13.40,46.51,2.86,0.67,-0.11,-8.50,11.86,53.19,3.05,0.15,-0.21,-6.39,11.12,59.67,2.78,-0.83,-0.71,5.11,2.16,40.94,3938.4282,10552.3740,0.15
486014357,3.44,-0.01,-0.01,-7.57,3.74,55.20,3.82,0.19,-0.14,-6.12,5.71,74.33,4.37,0.54,-0.07,-4.71,3.14,71.35,4.37,0.84,-0.27,-2.28,1.07,40.84,4.36,1.17,-1.31,-1.29,0.02,2.52,3938.4282,10552.3740,0.15
486018759,3.67,-0.11,-0.03,-6.58,-3.48,48.74,3.78,0.46,-0.15,-5.99,-3.80,39.68,4.02,1.21,-0.10,-6.29,-3.00,31.67,4.37,1.75,-0.26,-5.90,-2.43,21.51,4.36,2.05,-1.11,-5.77,0.33,-5.86,3938.4282,10552.3740,0.15
486023154,2.32,0.24,-0.09,-9.53,-5.46,46.75,2.24,0.90,-0.20,-8.65,-6.67,53.18,2.22,1.60,-0.11,-7.88,-9.48,40.18,2.35,2.21,-0.22,-7.88,-9.12,12.60,2.21,2.71,-0.58,-8.88,-2.07,6.37,3938.4282,10552.3740,0.15
486027533,0.88,0.18,-0.16,-15.77,-8.81,39.92,0.77,0.98,-0.24,-15.69,-9.62,46.64,0.56,1.83,-0.20,-16.76,-11.19,61.70,0.29,2.60,-0.19,-14.23,-13.51,54.87,-0.24,3.17,-0.15,-7.68,-16.05,31.54,3938.4282,10552.3740,0.15
486031768,1.20,-0.07,-0.23,-18.94,-10.56,30.41,1.17,0.64,-0.29,-19.32,-13.09,45.57,1.09,1.52,-0.27,-18.93,-15.09,49.63,1.00,2.68,-0.32,-20.32,-14.19,63.87,0.77,3.62,-0.41,-6.00,-15.52,73.42,3938.4282,10552.3740,0.15
486035776,1.99,-0.37,-0.23,-22.74,-16.38,14.89,2.10,0.33,-0.29,-23.57,-19.91,32.83,2.25,1.20,-0.22,-21.88,-19.50,34.91,2.42,2.10,-0.29,-26.20,-12.19,70.79,2.47,2.71,-0.72,-7.38,-2.09,105.81,3938.4282,10552.3740,0.15
486039819,1.45,-0.45,-0.22,-21.42,-8.25,7.33,1.50,-0.11,-0.28,-22.31,-8.60,21.84,1.56,0.27,-0.32,-21.65,-12.32,32.22,1.57,0.55,-0.22,-24.25,-16.09,70.13,1.14,1.12,-0.54,-2.59,-17.82,132.49,3938.4282,10552.3740,0.15
486048229,1.12,-1.12,-0.35,-23.64,-7.04,25.08,1.18,-1.46,-0.33,-22.85,-4.07,36.74,1.31,-1.79,-0.33,-25.11,-7.69,56.47,1.34,-2.27,-0.40,-24.52,-8.96,83.16,1.46,-2.47,-0.69,-6.56,-12.06,127.87,3938.4282,10552.3740,0.15
486052305,1.01,-1.53,-0.35,-15.30,-5.78,30.26,1.01,-2.07,-0.29,-14.42,-7.04,36.18,1.00,-2.54,-0.34,-17.74,-12.79,51.43,0.98,-3.21,-0.38,-17.75,-14.34,83.40,1.20,-3.62,-0.63,0.10,-13.85,112.20,3938.4282,10552.3740,0.15
486056358,0.55,-1.80,-0.38,-7.73,-6.23,46.33,0.39,-2.38,-0.30,-6.59,-4.24,61.70,0.33,-3.01,-0.36,-8.46,-7.33,60.34,0.17,-3.78,-0.39,-9.11,-7.98,62.15,0.27,-4.37,-0.50,1.65,-10.40,78.92,3938.4282,10552.3740,0.15
486060706,0.89,-2.20,-0.35,-6.99,-2.36,40.40,0.91,-2.72,-0.28,-7.20,-2.17,49.48,1.03,-3.27,-0.34,-9.60,-3.89,65.74,0.94,-3.84,-0.41,-8.87,-4.43,75.48,1.08,-4.23,-0.66,1.65,-6.85,54.69,3938.4282,10552.3740,0.15
486064954,0.79,-2.47,-0.33,-5.37,-3.29,52.32,0.88,-2.97,-0.26,-4.86,-3.99,55.76,1.09,-3.37,-0.33,-6.45,-6.98,46.92,1.10,-3.69,-0.40,-7.26,-8.26,33.64,1.17,-3.71,-0.67,-3.58,-7.35,35.82,3938.4282,10552.3740,0.15
486069226,0.19,-2.48,-0.36,2.21,-4.56,40.67,0.16,-2.76,-0.27,2.06,-4.06,36.54,0.15,-3.08,-0.36,0.35,-5.66,35.14,-0.08,-3.51,-0.39,0.18,-6.62,30.22,-0.14,-3.85,-0.42,2.99,-4.62,21.98,3938.4282,10552.3740,0.15
486073551,0.19,-2.55,-0.38,2.54,-4.39,32.82,0.15,-2.78,-0.29,2.70,-4.13,37.51,0.16,-2.98,-0.39,1.48,-6.17,35.09,-0.03,-3.17,-0.42,1.31,-6.94,28.47,-0.14,-3.30,-0.45,4.24,-10.70,12.35,3938.4282,10552.3740,0.15
486077928,0.59,-2.67,-0.36,1.57,-4.61,27.95,0.66,-2.79,-0.29,1.30,-3.78,26.04,0.81,-2.81,-0.38,0.04,-4.27,23.00,0.83,-2.78,-0.44,-0.25,-3.86,17.02,1.01,-2.63,-0.67,0.45,-2.38,5.23,3938.4282,10552.3740,0.15
486082342,0.51,-2.64,-0.36,1.92,-5.37,16.28,0.54,-2.68,-0.30,1.49,-4.65,14.37,0.64,-2.63,-0.37,0.72,-4.10,10.23,0.55,-2.58,-0.42,-0.08,-5.14,8.06,0.50,-2.56,-0.55,0.53,-5.32,9.40,3938.4282,10552.3740,0.15
486086714,0.14,-2.62,-0.38,3.15,-6.85,1.36,0.11,-2.70,-0.30,2.09,-6.95,-0.95,0.09,-2.68,-0.40,1.53,-6.62,2.05,-0.19,-2.64,-0.43,0.28,-7.01,11.60,-0.28,-2.57,-0.42,0.98,-5.08,3.62,3938.4282,10552.3740,0.15
486091063,0.08,-2.53,-0.41,3.19,-6.31,0.85,0.11,-2.65,-0.32,2.65,-6.51,-1.85,0.21,-2.73,-0.41,1.74,-8.03,-5.04,0.07,-2.75,-0.45,-0.03,-9.13,-3.43,0.06,-2.89,-0.50,0.10,-12.59,7.26,3938.4282,10552.3740,0.15
486095378,0.48,-2.45,-0.45,2.79,-5.35,-3.24,0.47,-2.59,-0.38,1.72,-6.27,-4.23,0.51,-2.74,-0.47,1.20,-8.28,-2.32,0.42,-2.96,-0.52,-0.32,-10.60,-1.94,0.37,-3.11,-0.63,-0.25,-13.89,1.13,3938.4282,10552.3740,0.15
486099635,0.43,-2.44,-0.49,2.23,-7.90,-4.84,0.43,-2.64,-0.42,1.20,-8.34,-6.35,0.55,-2.78,-0.51,0.20,-8.30,-2.65,0.53,-2.94,-0.54,-0.77,-9.47,-0.14,0.55,-3.09,-0.70,-2.19,-9.47,-7.66,3938.4282,10552.3740,0.15
486105249,0.16,-2.34,-0.50,4.74,-6.06,0.25,0.11,-2.55,-0.44,4.02,-7.44,-7.88,0.11,-2.74,-0.50,3.32,-10.08,-12.58,-0.01,-2.91,-0.55,1.70,-12.07,-15.77,-0.04,-3.04,-0.58,-2.42,-14.31,-17.33,3938.4282,10552.3740,0.15
486109514,-0.01,-2.14,-0.58,6.15,-10.77,0.06,-0.05,-2.32,-0.52,5.69,-11.21,-1.10,-0.02,-2.53,-0.59,5.80,-10.45,-11.81,-0.16,-2.77,-0.61,3.33,-12.89,-17.22,-0.15,-3.03,-0.63,-1.31,-13.17,-23.78,3938.4282,10552.3740,0.15
486113838,0.32,-2.04,-0.67,4.77,-5.78,4.26,0.28,-2.16,-0.63,3.79,-9.85,-0.08,0.35,-2.27,-0.71,3.45,-11.92,-3.51,0.19,-2.44,-0.73,2.70,-17.75,-13.90,0.01,-2.53,-0.78,-1.77,-25.90,-35.35,3938.4282,10552.3740,0.15
486118246,-0.03,-1.97,-0.72,5.17,-9.52,3.84,0.02,-2.03,-0.67,5.15,-12.93,1.94,0.12,-1.98,-0.74,4.96,-16.14,-8.74,0.20,-1.91,-0.77,3.08,-16.88,-19.47,0.40,-1.84,-0.87,-1.27,-15.13,-27.29,3938.4282,10552.3740,0.15
486122311,-0.04,-1.85,-0.84,5.85,-13.45,4.69,-0.12,-1.81,-0.79,5.78,-16.32,-1.85,-0.21,-1.64,-0.85,5.86,-20.03,-11.32,-0.47,-1.51,-0.87,4.35,-19.30,-19.54,-0.68,-1.47,-0.80,-1.56,-14.12,-36.45,3938.4282,10552.3740,0.15
486126420,-0.19,-1.67,-0.92,4.91,-9.39,-2.92,-0.17,-1.61,-0.86,4.51,-9.61,-8.79,-0.08,-1.43,-0.94,4.16,-10.19,-12.70,-0.19,-1.19,-0.93,3.39,-15.12,-14.37,-0.48,-1.13,-0.88,-0.56,-22.12,-24.02,3938.4282,10552.3740,0.15
486131420,-0.22,-1.54,-1.03,3.64,-15.51,-0.34,-0.20,-1.40,-0.98,3.04,-19.48,-6.10,-0.10,-1.15,-1.03,3.03,-21.66,-10.79,-0.14,-0.98,-1.04,1.92,-21.43,-12.37,-0.37,-0.95,-1.01,-2.29,-19.29,-24.09,3938.4282,10552.3740,0.15
486135411,-0.32,-1.42,-1.18,1.49,-7.43,-7.92,-0.35,-1.31,-1.12,0.64,-13.37,-6.80,-0.34,-1.12,-1.18,1.32,-20.05,-1.10,-0.47,-0.85,-1.19,0.01,-25.37,-9.82,-0.82,-0.80,-1.07,-0.60,-31.77,-10.47,3938.4282,10552.3740,0.15
486139411,-0.48,-1.38,-1.30,-0.18,-10.33,-3.39,-0.52,-1.31,-1.22,-0.12,-9.90,-2.81,-0.40,-1.12,-1.29,0.18,-9.34,-8.70,-0.34,-0.83,-1.29,-1.14,-10.60,-6.44,-0.51,-0.66,-1.23,-1.95,-13.77,-7.90,3938.4282,10552.3740,0.15
486143411,-0.18,-1.29,-1.39,-1.31,2.32,-0.77,-0.31,-1.24,-1.33,-1.40,-5.65,-8.28,-0.35,-1.07,-1.38,-1.85,-17.97,-11.27,-0.49,-0.95,-1.38,-2.89,-32.45,-5.64,-0.85,-0.86,-1.27,-1.95,-45.37,0.23,3938.4282,10552.3740,0.15
486147817,-0.70,-1.20,-1.59,0.85,-10.92,-2.15,-0.81,-1.21,-1.52,0.32,-16.09,-5.64,-0.74,-1.13,-1.59,0.13,-21.28,-6.77,-0.53,-1.07,-1.58,-1.46,-24.24,2.16,-0.45,-1.09,-1.53,-0.55,-26.89,1.48,3938.4282,10552.3740,0.15
486152211,-0.32,-1.14,-1.74,-0.80,-3.39,7.56,-0.39,-1.14,-1.69,-1.05,-5.50,8.03,-0.37,-1.12,-1.74,-0.53,-10.31,4.44,-0.49,-1.14,-1.75,-1.78,-16.61,-1.03,-0.77,-1.19,-1.65,-1.67,-22.35,3.13,3938.4282,10552.3740,0.15
486156582,-0.77,-1.21,-1.78,-1.01,-7.02,6.16,-0.70,-1.19,-1.71,-2.11,-5.32,6.71,-0.53,-1.07,-1.78,-2.69,-4.60,12.20,-0.51,-1.02,-1.78,-2.35,-6.05,13.64,-0.77,-0.99,-1.68,-1.16,-4.26,4.16,3938.4282,10552.3740,0.15
486160879,-1.02,-1.24,-1.79,-2.26,-2.18,13.58,-1.05,-1.23,-1.72,-2.18,-1.48,14.86,-1.05,-1.09,-1.79,-2.55,-2.58,11.25,-1.26,-0.84,-1.76,-3.16,-4.05,3.70,-1.62,-0.76,-1.51,-2.43,-5.47,7.45,3938.4282,10552.3740,0.15
486165134,-1.08,-1.23,-1.82,-0.51,-4.33,8.43,-1.13,-1.17,-1.75,-1.07,-4.62,7.42,-1.14,-1.01,-1.82,-1.80,-5.42,8.24,-1.36,-0.85,-1.79,-2.04,-7.00,9.01,-1.70,-0.76,-1.51,-0.40,-9.57,11.72,3938.4282,10552.3740,0.15
486169406,-1.18,-1.17,-1.87,-1.15,-2.29,11.84,-1.15,-1.13,-1.80,-1.46,-2.90,10.68,-1.03,-1.02,-1.87,-2.19,-4.00,10.36,-1.03,-0.90,-1.85,-2.58,-5.45,10.51,-1.24,-0.88,-1.66,-1.04,-7.05,12.89,3938.4282,10552.3740,0.15
486173634,-1.18,-1.19,-1.87,-2.71,-1.91,11.53,-1.17,-1.14,-1.80,-3.07,-0.62,14.64,-1.08,-1.02,-1.87,-3.93,0.28,16.37,-1.11,-0.92,-1.84,-3.92,1.99,18.77,-1.45,-0.95,-1.62,-0.81,3.85,19.02,3938.4282,10552.3740,0.15
486177942,-1.34,-1.29,-1.87,-4.45,0.41,14.14,-1.41,-1.26,-1.78,-4.75,0.59,17.10,-1.44,-1.12,-1.87,-5.62,-0.70,19.97,-1.61,-0.91,-1.84,-5.42,-1.53,21.49,-1.98,-0.84,-1.52,-2.14,-2.42,20.59,3938.4282,10552.3740,0.15
486182322,-1.34,-1.36,-1.87,-5.21,0.06,12.63,-1.36,-1.33,-1.79,-5.50,1.07,15.15,-1.30,-1.18,-1.87,-6.37,1.27,16.89,-1.38,-0.95,-1.84,-6.49,1.62,20.92,-1.61,-0.89,-1.59,-2.67,0.73,25.52,3938.4282,10552.3740,0.15
486186716,-1.11,-1.41,-1.87,-4.67,0.97,7.85,-1.10,-1.42,-1.79,-5.42,1.15,9.12,-1.00,-1.31,-1.88,-6.43,0.89,14.09,-1.06,-1.15,-1.86,-6.58,0.74,21.98,-1.35,-1.10,-1.66,-1.97,-0.09,30.78,3938.4282,10552.3740,0.15
486191092,-1.13,-1.43,-1.88,-4.74,1.11,9.54,-1.17,-1.50,-1.79,-5.27,1.31,11.14,-1.13,-1.48,-1.88,-6.25,0.84,13.26,-1.26,-1.43,-1.86,-6.76,0.85,18.62,-1.54,-1.51,-1.62,-2.80,0.67,31.44,3938.4282,10552.3740,0.15
486195418,-1.17,-1.46,-1.90,-4.74,1.66,10.42,-1.22,-1.57,-1.80,-5.33,1.77,13.48,-1.18,-1.61,-1.89,-6.38,1.06,18.19,-1.29,-1.67,-1.87,-6.50,0.80,22.90,-1.55,-1.82,-1.63,-2.60,-0.39,28.23,3938.4282,10552.3740,0.15
486199697,-0.90,-1.55,-1.90,-4.68,1.84,13.08,-0.92,-1.70,-1.81,-5.15,2.59,16.40,-0.83,-1.75,-1.89,-6.33,2.42,19.89,-0.92,-1.77,-1.88,-6.36,2.58,22.73,-1.18,-1.85,-1.72,-2.79,1.45,24.92,3938.4282,10552.3740,0.15
486203753,-0.76,-1.62,-1.90,-3.91,2.15,15.67,-0.77,-1.77,-1.82,-4.34,2.26,16.82,-0.68,-1.80,-1.90,-5.45,1.34,17.33,-0.76,-1.81,-1.90,-5.72,0.85,18.43,-1.00,-1.88,-1.76,-2.98,0.09,21.31,3938.4282,10552.3740,0.15
486207810,-0.74,-1.66,-1.92,-3.16,1.68,14.24,-0.79,-1.79,-1.83,-3.62,2.16,15.15,-0.74,-1.82,-1.91,-4.82,1.74,16.34,-0.86,-1.84,-1.90,-5.05,1.86,17.15,-1.12,-1.93,-1.75,-2.80,1.86,18.25,3938.4282,10552.3740,0.15
486212857,-0.65,-1.68,-1.92,-3.22,2.11,15.51,-0.68,-1.80,-1.84,-3.68,2.33,15.91,-0.62,-1.82,-1.92,-4.76,1.64,15.26,-0.74,-1.84,-1.92,-5.05,1.31,14.18,-1.04,-1.89,-1.79,-3.58,0.12,14.13,3938.4282,10552.3740,0.15
486216957,-0.48,-1.70,-1.93,-3.47,1.87,14.26,-0.50,-1.79,-1.85,-3.91,2.16,14.81,-0.42,-1.78,-1.93,-5.00,1.71,14.85,-0.50,-1.78,-1.93,-5.30,1.61,14.51,-0.75,-1.83,-1.84,-3.68,0.93,12.91,3938.4282,10552.3740,0.15
486221035,-0.45,-1.73,-1.93,-3.56,1.70,12.65,-0.48,-1.82,-1.85,-4.05,1.77,13.38,-0.41,-1.77,-1.93,-5.13,1.05,13.23,-0.51,-1.72,-1.94,-5.48,0.84,12.88,-0.76,-1.71,-1.85,-4.16,0.61,12.02,3938.4282,10552.3740,0.15
486225074,-0.47,-1.73,-1.94,-3.41,1.13,11.18,-0.51,-1.81,-1.86,-4.00,1.35,10.63,-0.47,-1.76,-1.94,-5.02,1.15,9.83,-0.61,-1.70,-1.94,-5.48,1.26,10.10,-0.93,-1.68,-1.83,-4.47,1.20,11.66,3938.4282,10552.3740,0.15
486229413,-0.46,-1.71,-1.95,-3.29,1.12,9.57,-0.49,-1.78,-1.87,-3.92,1.23,9.19,-0.42,-1.74,-1.95,-4.95,0.75,8.81,-0.54,-1.71,-1.95,-5.51,0.69,9.31,-0.85,-1.74,-1.84,-4.45,-0.04,11.56,3938.4282,10552.3740,0.15
486233684,-0.39,-1.70,-1.94,-3.39,0.71,9.49,-0.42,-1.77,-1.87,-3.99,1.03,9.79,-0.33,-1.74,-1.95,-5.01,0.89,9.60,-0.42,-1.72,-1.95,-5.49,1.22,9.60,-0.68,-1.74,-1.88,-4.61,1.08,10.54,3938.4282,10552.3740,0.15
486239286,-0.43,-1.71,-1.95,-3.51,0.34,9.32,-0.47,-1.78,-1.87,-4.17,0.64,10.32,-0.41,-1.73,-1.95,-5.11,0.34,10.59,-0.53,-1.69,-1.95,-5.54,0.52,10.40,-0.83,-1.71,-1.85,-4.59,0.77,9.98,3938.4282,10552.3740,0.15
486243524,-0.46,-1.73,-1.95,-3.45,0.20,9.07,-0.50,-1.79,-1.87,-4.09,0.49,9.84,-0.46,-1.73,-1.95,-5.01,0.26,9.80,-0.59,-1.66,-1.95,-5.52,0.36,9.60,-0.91,-1.65,-1.83,-4.61,0.05,9.73,3938.4282,10552.3740,0.15
486247827,-0.45,-1.73,-1.95,-3.45,-0.30,8.11,-0.48,-1.79,-1.86,-4.13,0.03,8.41,-0.42,-1.72,-1.94,-5.08,-0.10,8.53,-0.51,-1.65,-1.95,-5.62,0.17,8.77,-0.79,-1.64,-1.86,-4.75,-0.09,10.33,3938.4282,10552.3740,0.15
486252217,-0.46,-1.74,-1.94,-3.82,-0.95,6.76,-0.48,-1.79,-1.86,-4.55,-0.42,7.58,-0.41,-1.73,-1.94,-5.49,-0.42,8.47,-0.51,-1.67,-1.94,-5.95,-0.02,9.09,-0.78,-1.67,-1.85,-5.12,0.19,11.08,3938.4282,10552.3740,0.15
486256577,-0.57,-1.76,-1.94,-4.15,-1.56,5.25,-0.61,-1.82,-1.85,-4.93,-1.09,6.37,-0.55,-1.77,-1.93,-5.90,-1.03,7.51,-0.68,-1.71,-1.93,-6.42,-0.54,9.16,-0.97,-1.70,-1.81,-5.48,-0.14,11.43,3938.4282,10552.3740,0.15
486260951,-0.70,-1.77,-1.93,-4.33,-2.03,3.88,-0.73,-1.86,-1.83,-5.10,-1.51,4.78,-0.68,-1.81,-1.92,-6.03,-1.28,5.62,-0.80,-1.76,-1.92,-6.70,-0.64,7.91,-1.08,-1.77,-1.78,-5.80,-0.24,11.31,3938.4282,10552.3740,0.15
486265206,-0.83,-1.77,-1.92,-4.30,-2.17,2.99,-0.85,-1.87,-1.82,-5.08,-1.57,3.29,-0.78,-1.87,-1.92,-6.03,-1.24,4.08,-0.88,-1.84,-1.90,-6.79,-0.54,6.06,-1.15,-1.87,-1.75,-6.17,-0.10,10.65,3938.4282,10552.3740,0.15
486269399,-1.01,-1.76,-1.91,-4.05,-2.17,3.14,-1.04,-1.88,-1.81,-4.78,-1.69,3.01,-0.97,-1.90,-1.90,-5.69,-1.43,3.02,-1.08,-1.91,-1.88,-6.53,-0.78,4.87,-1.34,-1.99,-1.69,-6.28,0.04,8.56,3938.4282,10552.3740,0.15
486273694,-1.26,-1.74,-1.91,-3.75,-2.05,3.70,-1.30,-1.87,-1.80,-4.52,-1.53,3.78,-1.25,-1.92,-1.89,-5.36,-1.24,3.62,-1.37,-1.94,-1.87,-6.14,-0.46,3.93,-1.62,-2.05,-1.62,-6.28,0.43,5.45,3938.4282,10552.3740,0.15
486278019,-1.44,-1.72,-1.90,-3.41,-1.36,5.01,-1.47,-1.85,-1.79,-4.06,-0.73,4.72,-1.42,-1.90,-1.89,-4.96,-0.38,3.67,-1.54,-1.90,-1.85,-5.68,0.31,2.20,-1.80,-2.00,-1.57,-6.39,0.90,1.74,3938.4282,10552.3740,0.15
486282385,-1.57,-1.68,-1.90,-2.91,-0.68,5.55,-1.60,-1.80,-1.78,-3.59,-0.24,4.60,-1.54,-1.83,-1.88,-4.38,0.00,3.04,-1.65,-1.81,-1.85,-5.11,0.63,0.93,-1.89,-1.91,-1.54,-6.17,1.36,-1.20,3938.4282,10552.3740,0.15
486286474,-1.70,-1.64,-1.90,-2.47,0.24,5.79,-1.72,-1.74,-1.78,-3.11,0.65,4.60,-1.67,-1.75,-1.88,-3.87,0.72,2.47,-1.78,-1.70,-1.84,-4.57,1.15,-0.36,-2.03,-1.78,-1.51,-5.85,1.76,-3.12,3938.4282,10552.3740,0.15
486290535,-1.78,-1.59,-1.90,-2.33,0.95,5.83,-1.82,-1.66,-1.79,-2.89,1.21,4.32,-1.78,-1.65,-1.89,-3.67,1.25,1.89,-1.90,-1.57,-1.84,-4.27,1.57,-1.09,-2.17,-1.63,-1.48,-5.74,1.87,-4.08,3938.4282,10552.3740,0.15
486294650,-1.80,-1.53,-1.91,-2.41,1.68,5.45,-1.83,-1.59,-1.79,-3.00,1.80,3.89,-1.79,-1.54,-1.89,-3.82,1.71,1.68,-1.90,-1.43,-1.84,-4.38,1.92,-0.95,-2.16,-1.48,-1.48,-5.73,1.88,-3.82,3938.4282,10552.3740,0.15
486299665,-1.76,-1.46,-1.92,-2.64,2.14,4.72,-1.79,-1.50,-1.81,-3.23,2.16,3.41,-1.74,-1.43,-1.90,-3.91,2.01,1.40,-1.83,-1.29,-1.85,-4.50,2.21,-0.70,-2.08,-1.31,-1.51,-5.56,2.18,-2.36,3938.4282,10552.3740,0.15
486303658,-1.73,-1.41,-1.92,-2.71,2.51,3.88,-1.76,-1.44,-1.82,-3.31,2.59,2.62,-1.72,-1.35,-1.91,-4.03,2.50,1.20,-1.82,-1.21,-1.86,-4.55,2.60,-0.15,-2.09,-1.23,-1.52,-5.46,2.45,-0.73,3938.4282,10552.3740,0.15
486307674,-1.69,-1.36,-1.93,-2.85,2.89,3.52,-1.73,-1.38,-1.83,-3.46,2.87,2.46,-1.69,-1.30,-1.92,-4.16,2.67,1.19,-1.79,-1.16,-1.88,-4.64,2.62,0.59,-2.08,-1.18,-1.53,-5.31,2.05,1.13,3938.4282,10552.3740,0.15
486312021,-1.61,-1.30,-1.95,-2.94,3.18,4.14,-1.64,-1.32,-1.84,-3.52,3.17,2.99,-1.59,-1.25,-1.93,-4.24,2.71,2.15,-1.68,-1.13,-1.89,-4.74,2.68,2.12,-1.95,-1.16,-1.57,-5.02,2.25,2.95,3938.4282,10552.3740,0.15
486316389,-1.54,-1.26,-1.95,-2.78,2.96,5.57,-1.57,-1.29,-1.86,-3.26,2.51,4.42,-1.52,-1.22,-1.94,-4.03,2.47,3.21,-1.59,-1.10,-1.90,-4.44,2.86,4.28,-1.85,-1.13,-1.60,-4.33,2.48,3.96,3938.4282,10552.3740,0.15
486320764,-1.48,-1.22,-1.96,-4.09,4.10,7.65,-1.55,-1.25,-1.87,-4.53,2.98,6.78,-1.55,-1.18,-1.96,-5.00,1.14,4.53,-1.61,-1.06,-1.92,-5.41,2.45,6.65,-1.93,-1.10,-1.61,-5.17,2.26,5.36,3938.4282,10552.3740,0.15
486325140,-1.47,-1.22,-1.97,-4.96,3.10,7.55,-1.52,-1.26,-1.88,-5.07,4.10,5.45,-1.50,-1.17,-1.96,-5.93,1.64,4.87,-1.52,-1.03,-1.92,-6.39,-0.09,8.80,-1.77,-1.01,-1.64,-5.63,0.70,8.61,3938.4282,10552.3740,0.15
486329506,-1.53,-1.21,-1.99,-5.24,3.29,5.10,-1.56,-1.26,-1.89,-5.71,4.09,3.70,-1.43,-1.17,-1.97,-6.82,4.43,2.72,-1.39,-1.04,-1.93,-6.89,3.10,5.53,-1.73,-1.03,-1.66,-5.88,1.44,9.80,3938.4282,10552.3740,0.15
486333777,-1.16,-1.17,-1.99,-6.10,3.43,1.91,-1.23,-1.23,-1.90,-6.55,2.57,2.05,-1.29,-1.19,-1.98,-7.17,2.01,3.96,-1.45,-1.11,-1.95,-7.96,5.59,4.50,-1.82,-1.16,-1.67,-7.15,6.02,10.86,3938.4282,10552.3740,0.15
486338008,-1.41,-1.12,-1.99,-5.31,4.07,1.12,-1.40,-1.25,-1.90,-6.38,3.66,-2.40,-1.26,-1.26,-1.97,-7.28,4.35,0.43,-1.28,-1.24,-1.94,-7.60,1.36,4.62,-1.46,-1.23,-1.71,-7.54,-1.29,7.72,3938.4282,10552.3740,0.15
486342202,-1.32,-1.01,-1.99,-4.15,3.43,5.36,-1.35,-1.15,-1.90,-4.86,5.33,2.70,-1.31,-1.22,-1.98,-5.70,6.59,1.87,-1.46,-1.30,-1.94,-6.02,8.39,-0.53,-1.73,-1.53,-1.66,-7.13,8.91,4.73,3938.4282,10552.3740,0.15
486346518,-1.27,-0.92,-2.01,-3.41,2.64,10.26,-1.34,-1.06,-1.93,-3.65,0.10,12.76,-1.37,-1.16,-2.00,-4.21,-1.98,8.96,-1.59,-1.28,-1.95,-4.59,-2.19,4.55,-1.98,-1.44,-1.64,-5.22,-2.38,0.32,3938.4282,10552.3740,0.15
486350903,-1.50,-0.97,-2.03,-3.69,-0.07,18.66,-1.48,-1.02,-1.94,-3.80,0.96,15.86,-1.31,-0.98,-2.01,-4.85,3.43,17.93,-1.41,-0.94,-1.97,-4.25,1.97,8.32,-1.62,-1.03,-1.71,-4.87,3.54,-4.31,3938.4282,10552.3740,0.15
486355274,-1.29,-1.04,-2.03,-6.04,5.72,16.82,-1.30,-1.02,-1.95,-5.77,10.20,15.12,-1.20,-0.81,-2.01,-6.10,10.29,15.57,-1.29,-0.56,-1.98,-5.53,5.00,12.85,-1.69,-0.45,-1.70,-6.05,-1.00,-3.65,3938.4282,10552.3740,0.15
486359669,-1.27,-1.03,-2.04,-6.91,5.91,6.29,-1.35,-1.05,-1.96,-6.70,5.92,0.95,-1.42,-0.82,-2.04,-8.12,2.35,-0.64,-1.48,-0.42,-2.01,-8.44,1.49,5.75,-1.81,-0.15,-1.71,-7.72,-1.08,5.66,3938.4282,10552.3740,0.15
486363995,-1.45,-0.88,-2.05,-6.35,5.41,1.46,-1.48,-0.89,-1.96,-6.87,5.18,-6.22,-1.43,-0.77,-2.04,-8.21,4.48,-9.31,-1.46,-0.62,-1.99,-9.35,3.11,-4.43,-1.69,-0.66,-1.72,-8.96,1.51,13.12,3938.4282,10552.3740,0.15
486368282,-1.48,-0.72,-2.07,-6.20,2.51,-2.66,-1.46,-0.80,-1.99,-6.94,2.29,-2.58,-1.39,-0.85,-2.06,-7.28,1.90,-1.73,-1.52,-0.94,-2.01,-8.09,2.18,4.96,-1.84,-1.12,-1.71,-6.82,3.68,13.48,3938.4282,10552.3740,0.15
486373493,-1.37,-0.74,-2.06,-8.70,3.49,6.29,-1.42,-0.85,-1.98,-9.12,4.13,9.73,-1.41,-0.90,-2.04,-9.77,4.52,11.55,-1.59,-0.98,-2.00,-9.68,4.51,8.26,-1.91,-1.13,-1.69,-9.00,4.98,6.18,3938.4282,10552.3740,0.15
486377562,-1.39,-0.82,-2.05,-7.67,5.37,4.69,-1.42,-0.93,-1.97,-8.38,5.54,7.23,-1.34,-0.91,-2.04,-9.32,6.28,10.94,-1.42,-0.82,-1.99,-9.16,6.01,9.75,-1.67,-0.83,-1.72,-7.86,2.75,5.53,3938.4282,10552.3740,0.15
486385977,-1.30,-0.62,-2.05,-4.91,6.03,7.26,-1.38,-0.72,-1.98,-4.99,3.89,2.06,-1.39,-0.75,-2.04,-5.76,1.73,-2.16,-1.49,-0.81,-1.99,-6.66,1.99,-1.80,-1.82,-0.99,-1.70,-7.32,3.05,2.52,3938.4280,10552.3740,0.33
486390058,-1.41,-0.53,-2.05,-4.04,2.42,7.82,-1.42,-0.64,-1.97,-4.56,0.29,8.08,-1.33,-0.67,-2.03,-5.13,0.66,4.84,-1.37,-0.74,-1.98,-5.28,2.07,8.36,-1.55,-0.90,-1.72,-6.50,6.10,-2.30,3938.4280,10552.3740,0.33
486394147,-1.16,-0.51,-2.08,-5.78,4.70,16.77,-1.20,-0.57,-2.02,-5.63,6.07,19.67,-1.17,-0.53,-2.07,-6.20,6.69,14.21,-1.35,-0.49,-2.03,-6.02,7.64,5.01,-1.94,-0.57,-1.72,-7.41,6.09,-7.12,3938.4280,10552.3740,0.33
486398129,-1.20,-0.59,-2.03,-5.96,3.56,9.13,-1.18,-0.57,-1.97,-6.49,4.87,10.52,-1.08,-0.39,-2.02,-7.17,4.72,14.05,-1.05,-0.16,-1.99,-6.68,5.66,13.65,-1.41,-0.07,-1.76,-6.28,5.09,-1.66,3938.4280,10552.3740,0.33
486402423,-1.14,-0.58,-2.05,-5.71,3.58,7.73,-1.15,-0.56,-2.00,-6.18,5.38,7.50,-1.10,-0.35,-2.05,-6.51,5.71,3.72,-1.21,-0.01,-2.02,-6.90,6.73,0.61,-1.59,0.21,-1.75,-8.07,7.26,2.08,3938.4280,10552.3740,0.33
486406723,-1.03,-0.41,-2.04,-5.44,4.35,3.02,-1.06,-0.38,-1.98,-6.06,4.45,-0.80,-1.08,-0.27,-2.03,-6.82,4.50,-1.35,-1.29,-0.16,-1.99,-7.26,4.77,0.34,-1.74,-0.14,-1.70,-7.41,4.53,9.99,3938.4280,10552.3740,0.33
486411057,-1.24,-0.35,-2.03,-6.70,3.56,0.76,-1.25,-0.36,-1.98,-7.40,3.41,1.84,-1.17,-0.30,-2.02,-8.22,3.42,6.13,-1.17,-0.28,-1.98,-8.24,3.91,10.81,-1.43,-0.38,-1.75,-6.40,3.75,12.83,3938.4280,10552.3740,0.33
486415385,-0.98,-0.37,-2.01,-8.01,3.42,8.88,-1.02,-0.42,-1.96,-8.02,4.01,10.99,-0.99,-0.39,-2.01,-8.64,4.46,12.45,-1.06,-0.33,-1.98,-8.65,7.31,8.55,-1.45,-0.33,-1.75,-8.04,8.48,10.39,3938.4280,10552.3740,0.33
486419750,-1.09,-0.43,-2.01,-7.69,6.49,5.05,-1.14,-0.49,-1.95,-8.11,6.25,4.36,-1.07,-0.43,-2.00,-9.25,5.07,7.56,-1.10,-0.31,-1.96,-8.93,4.26,15.25,-1.52,-0.28,-1.72,-6.45,1.83,13.82,3938.4280,10552.3740,0.33
486424135,-1.27,-0.44,-1.97,-4.04,3.94,7.60,-1.30,-0.54,-1.90,-3.95,3.51,2.32,-1.31,-0.47,-1.96,-5.20,1.44,1.38,-1.19,-0.37,-1.92,-5.66,1.14,6.76,-1.16,-0.36,-1.73,-5.30,5.14,14.88,3938.4280,10552.3740,0.33
486428529,-1.16,-0.30,-2.00,-3.24,3.99,7.30,-1.27,-0.37,-1.94,-4.94,2.23,13.49,-1.28,-0.42,-1.99,-4.53,3.99,7.85,-1.40,-0.46,-1.94,-5.19,5.80,6.08,-1.84,-0.77,-1.64,-4.15,5.70,5.01,3938.4280,10552.3740,0.33
486432857,-1.20,-0.33,-2.00,-5.07,-0.74,10.67,-1.19,-0.43,-1.94,-5.55,-0.18,14.32,-1.20,-0.40,-1.99,-5.98,1.11,19.52,-1.46,-0.36,-1.95,-5.42,1.67,18.04,-2.02,-0.49,-1.63,-2.94,7.39,16.85,3938.4280,10552.3740,0.33
486437069,-1.09,-0.51,-1.95,-8.63,2.08,15.76,-1.07,-0.55,-1.88,-8.07,3.19,20.26,-0.90,-0.34,-1.93,-9.09,3.58,16.37,-0.79,-0.08,-1.90,-8.60,5.55,13.14,-1.09,-0.02,-1.73,-7.35,3.78,9.73,3938.4280,10552.3740,0.33
486441295,-1.11,-0.49,-1.97,-5.10,2.60,3.79,-1.07,-0.55,-1.91,-5.80,5.74,2.55,-0.98,-0.43,-1.96,-6.19,7.84,1.03,-0.98,-0.12,-1.94,-7.03,7.53,6.84,-1.23,0.08,-1.74,-4.88,8.20,16.56,3938.4280,10552.3740,0.33
486445633,-1.50,-0.33,-1.97,-3.42,1.69,7.42,-1.60,-0.41,-1.90,-3.65,1.50,1.17,-1.72,-0.41,-1.96,-4.53,1.35,-6.64,-2.03,-0.40,-1.89,-5.63,2.43,-1.32,-2.60,-0.58,-1.46,-3.56,4.65,18.52,3938.4280,10552.3740,0.33
486450011,-1.74,-0.25,-1.96,-5.85,3.79,8.93,-1.78,-0.31,-1.88,-6.03,5.37,12.12,-1.73,-0.37,-1.94,-6.84,5.89,13.51,-1.77,-0.56,-1.87,-6.38,4.77,14.79,-1.95,-0.86,-1.54,-4.59,0.17,12.39,3938.4280,10552.3740,0.33
486454437,-0.99,-0.41,-1.94,-7.82,4.28,10.83,-0.94,-0.49,-1.88,-7.90,5.76,16.98,-0.84,-0.47,-1.93,-8.74,5.26,22.84,-0.81,-0.38,-1.91,-7.84,6.90,19.22,-1.01,-0.25,-1.75,-6.43,7.14,8.70,3938.4280,10552.3740,0.33
486458832,-1.31,-0.51,-1.93,-4.86,4.41,9.09,-1.33,-0.57,-1.86,-5.38,3.02,6.64,-1.29,-0.47,-1.92,-5.82,1.81,6.70,-1.41,-0.25,-1.88,-6.07,0.96,5.87,-1.78,-0.09,-1.58,-5.10,3.10,12.13,3938.4280,10552.3740,0.33
486462904,-1.94,-0.40,-1.95,-2.09,3.65,2.91,-2.08,-0.47,-1.87,-2.67,3.06,-0.79,-2.14,-0.45,-1.93,-3.41,3.62,-1.52,-2.27,-0.39,-1.86,-3.95,5.31,1.67,-2.61,-0.49,-1.41,-3.24,5.71,12.30,3938.4280,10552.3740,0.33
486466992,-1.38,-0.23,-1.94,-3.83,6.26,7.30,-1.44,-0.35,-1.87,-4.13,6.89,5.26,-1.46,-0.45,-1.92,-4.95,7.25,4.28,-1.60,-0.57,-1.87,-4.98,6.55,4.22,-1.95,-0.75,-1.55,-4.86,3.44,8.34,3938.4280,10552.3740,0.33
486472061,-1.07,-0.28,-1.91,-4.99,5.04,8.91,-1.01,-0.37,-1.85,-5.27,5.25,11.57,-0.84,-0.39,-1.90,-6.19,5.13,14.87,-0.74,-0.44,-1.87,-5.63,5.61,15.70,-0.97,-0.53,-1.72,-3.93,6.48,6.08,3938.4280,10552.3740,0.33
486476090,-1.51,-0.38,-1.91,-3.71,4.97,11.41,-1.54,-0.47,-1.84,-3.92,6.63,12.88,-1.54,-0.41,-1.89,-4.26,6.59,11.14,-1.66,-0.23,-1.84,-4.19,6.03,7.90,-2.00,-0.18,-1.50,-4.20,8.32,4.06,3938.4280,10552.3740,0.33
486480117,-1.52,-0.35,-1.91,-1.83,5.58,5.57,-1.61,-0.41,-1.85,-3.12,4.55,5.71,-1.70,-0.34,-1.90,-3.15,3.88,1.53,-1.98,-0.17,-1.84,-3.57,5.76,2.31,-2.48,-0.15,-1.42,-3.65,6.16,5.07,3938.4280,10552.3740,0.33
486484538,-0.94,-0.22,-1.89,-3.39,4.72,4.66,-0.94,-0.29,-1.85,-3.90,3.74,5.16,-0.96,-0.28,-1.89,-3.61,4.14,-3.22,-1.03,-0.23,-1.86,-4.56,4.01,2.15,-1.07,-0.26,-1.69,-4.02,6.60,8.79,3938.4280,10552.3740,0.33
486488964,-1.03,-0.15,-1.87,-1.26,3.89,9.02,-1.00,-0.23,-1.82,-0.67,1.59,4.67,-0.72,-0.24,-1.86,-2.39,2.59,0.12,-0.51,-0.32,-1.83,-2.39,4.64,6.56,-0.74,-0.34,-1.73,-2.15,7.91,3.18,3938.4280,10552.3740,0.33
486493400,-1.16,-0.16,-1.89,-0.60,5.16,11.16,-1.28,-0.16,-1.84,-0.67,4.78,14.11,-1.37,-0.17,-1.89,-1.03,5.65,12.81,-1.61,-0.21,-1.84,-0.98,9.69,6.91,-2.23,-0.35,-1.46,-0.96,13.67,2.87,3938.4280,10552.3740,0.33
486497781,-0.97,-0.24,-1.87,-1.15,7.91,10.22,-1.10,-0.26,-1.82,-0.92,4.31,9.52,-1.17,-0.18,-1.86,-2.15,2.51,13.61,-1.24,-0.02,-1.82,-1.37,3.40,13.31,-1.55,0.19,-1.57,-0.60,0.77,1.26,3938.4280,10552.3740,0.33
486502066,-0.68,-0.28,-1.85,-0.52,6.65,8.35,-0.68,-0.24,-1.80,-0.86,7.86,7.10,-0.46,-0.04,-1.84,-1.84,9.82,5.51,-0.24,0.13,-1.83,-1.70,9.40,5.65,-0.42,0.23,-1.78,-1.82,10.75,4.58,3938.4280,10552.3740,0.33
